Nov. 1, 2023   13:39:19
Cyclic Voltammetry
File: c:\users\pku\desktop\zqk\comp\¿ìËÙ.txt
Data Source:  Experiment
Instrument Model:  CHI600B
Header: 
Note: 

Init E (V) = 0.65
High E (V) = 1.1
Low E (V) = -0.29
Init P/N = N
Scan Rate (V/s) = 0.1
Segment = 6
Sample Interval (V) = 0.005
Quiet Time (sec) = 2
Sensitivity (A/V) = 5e-6

Segment 1:
Ep = 0.270V
ip = 1.305e-5A
Ah = 1.524e-5C

Ep = -0.040V
ip = 6.598e-6A
Ah = 4.456e-7C

Segment 2:
Segment 3:
Ep = 0.280V
ip = 2.321e-5A
Ah = 2.859e-5C

Ep = -0.075V
ip = 8.067e-6A
Ah = 7.032e-7C

Segment 4:
Segment 5:
Ep = 0.280V
ip = 2.534e-5A
Ah = 2.880e-5C

Ep = -0.055V
ip = 5.822e-6A
Ah = 9.294e-7C

Segment 6:
Potential/V, Current/A, Charge/C

Segment 1:
0.645, 6.790e-8, 3.395e-9
0.640, 1.412e-7, 1.045e-8
0.635, 2.343e-7, 2.217e-8
0.630, 2.646e-7, 3.540e-8
0.625, 3.206e-7, 5.143e-8
0.620, 3.736e-7, 7.011e-8
0.615, 3.914e-7, 8.968e-8
0.610, 4.596e-7, 1.127e-7
0.605, 4.843e-7, 1.369e-7
0.600, 5.346e-7, 1.636e-7
0.595, 5.926e-7, 1.932e-7
0.590, 6.206e-7, 2.243e-7
0.585, 6.991e-7, 2.592e-7
0.580, 7.509e-7, 2.968e-7
0.575, 8.165e-7, 3.376e-7
0.570, 9.028e-7, 3.827e-7
0.565, 9.571e-7, 4.306e-7
0.560, 1.062e-6, 4.837e-7
0.555, 1.145e-6, 5.409e-7
0.550, 1.239e-6, 6.029e-7
0.545, 1.368e-6, 6.713e-7
0.540, 1.469e-6, 7.448e-7
0.535, 1.620e-6, 8.258e-7
0.530, 1.760e-6, 9.138e-7
0.525, 1.909e-6, 1.009e-6
0.520, 2.102e-6, 1.114e-6
0.515, 2.271e-6, 1.228e-6
0.510, 2.500e-6, 1.353e-6
0.505, 2.720e-6, 1.489e-6
0.500, 2.951e-6, 1.636e-6
0.495, 3.247e-6, 1.799e-6
0.490, 3.506e-6, 1.974e-6
0.485, 3.822e-6, 2.165e-6
0.480, 4.149e-6, 2.373e-6
0.475, 4.473e-6, 2.596e-6
0.470, 4.855e-6, 2.839e-6
0.465, 5.202e-6, 3.099e-6
0.460, 5.621e-6, 3.380e-6
0.455, 6.040e-6, 3.682e-6
0.450, 6.475e-6, 4.006e-6
0.445, 6.977e-6, 4.355e-6
0.440, 7.450e-6, 4.727e-6
0.435, 8.011e-6, 5.128e-6
0.430, 8.659e-6, 5.561e-6
0.425, 9.204e-6, 6.021e-6
0.420, 9.709e-6, 6.506e-6
0.415, 1.014e-5, 7.014e-6
0.410, 1.061e-5, 7.544e-6
0.405, 1.104e-5, 8.096e-6
0.400, 1.141e-5, 8.667e-6
0.395, 1.195e-5, 9.264e-6
0.390, 1.244e-5, 9.886e-6
0.385, 1.274e-5, 1.052e-5
0.380, 1.341e-5, 1.119e-5
0.375, 1.442e-5, 1.192e-5
0.370, 1.525e-5, 1.268e-5
0.365, 1.605e-5, 1.348e-5
0.360, 1.638e-5, 1.430e-5
0.355, 1.665e-5, 1.513e-5
0.350, 1.788e-5, 1.603e-5
0.345, 1.902e-5, 1.698e-5
0.340, 1.991e-5, 1.797e-5
0.335, 2.079e-5, 1.901e-5
0.330, 2.200e-5, 2.011e-5
0.325, 2.272e-5, 2.125e-5
0.320, 2.285e-5, 2.239e-5
0.315, 2.281e-5, 2.353e-5
0.310, 2.307e-5, 2.468e-5
0.305, 2.408e-5, 2.589e-5
0.300, 2.426e-5, 2.710e-5
0.295, 2.428e-5, 2.831e-5
0.290, 2.390e-5, 2.951e-5
0.285, 2.299e-5, 3.066e-5
0.280, 2.261e-5, 3.179e-5
0.275, 2.430e-5, 3.300e-5
0.270, 2.510e-5, 3.426e-5
0.265, 2.416e-5, 3.547e-5
0.260, 2.283e-5, 3.661e-5
0.255, 2.195e-5, 3.771e-5
0.250, 2.170e-5, 3.879e-5
0.245, 2.066e-5, 3.983e-5
0.240, 2.017e-5, 4.083e-5
0.235, 2.060e-5, 4.186e-5
0.230, 2.113e-5, 4.292e-5
0.225, 2.275e-5, 4.406e-5
0.220, 2.371e-5, 4.524e-5
0.215, 2.303e-5, 4.639e-5
0.210, 2.350e-5, 4.757e-5
0.205, 2.377e-5, 4.876e-5
0.200, 2.625e-5, 5.007e-5
0.195, 2.552e-5, 5.135e-5
0.190, 2.341e-5, 5.252e-5
0.185, 2.447e-5, 5.374e-5
0.180, 2.557e-5, 5.502e-5
0.175, 2.935e-5, 5.649e-5
0.170, 3.358e-5, 5.817e-5
0.165, 3.253e-5, 5.979e-5
0.160, 3.189e-5, 6.139e-5
0.155, 2.984e-5, 6.288e-5
0.150, 2.955e-5, 6.436e-5
0.145, 3.066e-5, 6.589e-5
0.140, 3.065e-5, 6.742e-5
0.135, 3.072e-5, 6.896e-5
0.130, 2.988e-5, 7.045e-5
0.125, 2.716e-5, 7.181e-5
0.120, 2.649e-5, 7.313e-5
0.115, 2.505e-5, 7.439e-5
0.110, 2.561e-5, 7.567e-5
0.105, 2.730e-5, 7.703e-5
0.100, 2.779e-5, 7.842e-5
0.095, 3.085e-5, 7.996e-5
0.090, 2.995e-5, 8.146e-5
0.085, 2.901e-5, 8.291e-5
0.080, 2.836e-5, 8.433e-5
0.075, 2.990e-5, 8.583e-5
0.070, 3.160e-5, 8.741e-5
0.065, 3.060e-5, 8.894e-5
0.060, 3.129e-5, 9.050e-5
0.055, 3.213e-5, 9.211e-5
0.050, 3.310e-5, 9.376e-5
0.045, 3.469e-5, 9.550e-5
0.040, 3.539e-5, 9.727e-5
0.035, 3.572e-5, 9.905e-5
0.030, 3.129e-5, 1.006e-4
0.025, 3.130e-5, 1.022e-4
0.020, 3.343e-5, 1.039e-4
0.015, 3.248e-5, 1.055e-4
0.010, 3.088e-5, 1.070e-4
0.005, 2.805e-5, 1.084e-4
0.000, 2.751e-5, 1.098e-4
-0.005, 3.153e-5, 1.114e-4
-0.010, 3.014e-5, 1.129e-4
-0.015, 3.017e-5, 1.144e-4
-0.020, 3.049e-5, 1.159e-4
-0.025, 3.090e-5, 1.175e-4
-0.030, 3.063e-5, 1.190e-4
-0.035, 3.507e-5, 1.207e-4
-0.040, 3.956e-5, 1.227e-4
-0.045, 3.903e-5, 1.247e-4
-0.050, 3.670e-5, 1.265e-4
-0.055, 3.678e-5, 1.283e-4
-0.060, 3.251e-5, 1.300e-4
-0.065, 2.863e-5, 1.314e-4
-0.070, 2.650e-5, 1.327e-4
-0.075, 2.485e-5, 1.340e-4
-0.080, 2.424e-5, 1.352e-4
-0.085, 2.597e-5, 1.365e-4
-0.090, 2.857e-5, 1.379e-4
-0.095, 3.588e-5, 1.397e-4
-0.100, 3.727e-5, 1.416e-4
-0.105, 3.325e-5, 1.432e-4
-0.110, 3.217e-5, 1.448e-4
-0.115, 3.279e-5, 1.465e-4
-0.120, 3.384e-5, 1.482e-4
-0.125, 3.296e-5, 1.498e-4
-0.130, 3.195e-5, 1.514e-4
-0.135, 3.127e-5, 1.530e-4
-0.140, 2.872e-5, 1.544e-4
-0.145, 2.787e-5, 1.558e-4
-0.150, 2.889e-5, 1.573e-4
-0.155, 3.014e-5, 1.588e-4
-0.160, 2.959e-5, 1.602e-4
-0.165, 2.898e-5, 1.617e-4
-0.170, 3.134e-5, 1.633e-4
-0.175, 3.478e-5, 1.650e-4
-0.180, 3.465e-5, 1.667e-4
-0.185, 3.263e-5, 1.684e-4
-0.190, 2.898e-5, 1.698e-4
-0.195, 2.930e-5, 1.713e-4
-0.200, 3.421e-5, 1.730e-4
-0.205, 3.274e-5, 1.746e-4
-0.210, 3.078e-5, 1.762e-4
-0.215, 2.864e-5, 1.776e-4
-0.220, 2.574e-5, 1.789e-4
-0.225, 2.624e-5, 1.802e-4
-0.230, 2.773e-5, 1.816e-4
-0.235, 3.291e-5, 1.832e-4
-0.240, 3.510e-5, 1.850e-4
-0.245, 3.251e-5, 1.866e-4
-0.250, 2.950e-5, 1.881e-4
-0.255, 2.893e-5, 1.895e-4
-0.260, 3.213e-5, 1.911e-4
-0.265, 3.249e-5, 1.928e-4
-0.270, 2.943e-5, 1.942e-4
-0.275, 2.798e-5, 1.956e-4
-0.280, 3.201e-5, 1.972e-4
-0.285, 3.157e-5, 1.988e-4
-0.290, 2.977e-5, 2.003e-4

Segment 2:
-0.285, 3.150e-5, 2.019e-4
-0.280, 3.225e-5, 2.035e-4
-0.275, 3.141e-5, 2.051e-4
-0.270, 2.991e-5, 2.065e-4
-0.265, 2.780e-5, 2.079e-4
-0.260, 2.514e-5, 2.092e-4
-0.255, 2.476e-5, 2.104e-4
-0.250, 2.642e-5, 2.118e-4
-0.245, 2.861e-5, 2.132e-4
-0.240, 2.765e-5, 2.146e-4
-0.235, 2.556e-5, 2.158e-4
-0.230, 2.519e-5, 2.171e-4
-0.225, 2.842e-5, 2.185e-4
-0.220, 3.320e-5, 2.202e-4
-0.215, 3.043e-5, 2.217e-4
-0.210, 2.639e-5, 2.230e-4
-0.205, 2.578e-5, 2.243e-4
-0.200, 2.523e-5, 2.256e-4
-0.195, 2.555e-5, 2.269e-4
-0.190, 2.938e-5, 2.283e-4
-0.185, 2.928e-5, 2.298e-4
-0.180, 3.123e-5, 2.313e-4
-0.175, 3.319e-5, 2.330e-4
-0.170, 3.306e-5, 2.347e-4
-0.165, 3.060e-5, 2.362e-4
-0.160, 2.726e-5, 2.376e-4
-0.155, 3.035e-5, 2.391e-4
-0.150, 3.864e-5, 2.410e-4
-0.145, 3.777e-5, 2.429e-4
-0.140, 3.624e-5, 2.447e-4
-0.135, 3.272e-5, 2.463e-4
-0.130, 3.247e-5, 2.480e-4
-0.125, 2.892e-5, 2.494e-4
-0.120, 2.900e-5, 2.509e-4
-0.115, 2.928e-5, 2.523e-4
-0.110, 3.028e-5, 2.538e-4
-0.105, 2.937e-5, 2.553e-4
-0.100, 2.569e-5, 2.566e-4
-0.095, 2.254e-5, 2.577e-4
-0.090, 2.319e-5, 2.589e-4
-0.085, 2.521e-5, 2.601e-4
-0.080, 2.422e-5, 2.613e-4
-0.075, 2.423e-5, 2.626e-4
-0.070, 2.503e-5, 2.638e-4
-0.065, 2.876e-5, 2.653e-4
-0.060, 2.885e-5, 2.667e-4
-0.055, 2.833e-5, 2.681e-4
-0.050, 2.765e-5, 2.695e-4
-0.045, 2.682e-5, 2.708e-4
-0.040, 3.232e-5, 2.724e-4
-0.035, 3.718e-5, 2.743e-4
-0.030, 3.110e-5, 2.759e-4
-0.025, 3.017e-5, 2.774e-4
-0.020, 3.157e-5, 2.790e-4
-0.015, 2.824e-5, 2.804e-4
-0.010, 2.563e-5, 2.816e-4
-0.005, 2.344e-5, 2.828e-4
-0.000, 2.347e-5, 2.840e-4
0.005, 2.142e-5, 2.851e-4
0.010, 2.189e-5, 2.862e-4
0.015, 2.703e-5, 2.875e-4
0.020, 2.840e-5, 2.889e-4
0.025, 3.226e-5, 2.905e-4
0.030, 3.028e-5, 2.921e-4
0.035, 2.685e-5, 2.934e-4
0.040, 2.639e-5, 2.947e-4
0.045, 2.814e-5, 2.961e-4
0.050, 2.992e-5, 2.976e-4
0.055, 2.962e-5, 2.991e-4
0.060, 2.947e-5, 3.006e-4
0.065, 2.813e-5, 3.020e-4
0.070, 2.747e-5, 3.034e-4
0.075, 3.306e-5, 3.050e-4
0.080, 3.249e-5, 3.066e-4
0.085, 2.918e-5, 3.081e-4
0.090, 2.679e-5, 3.094e-4
0.095, 2.557e-5, 3.107e-4
0.100, 2.788e-5, 3.121e-4
0.105, 3.204e-5, 3.137e-4
0.110, 2.979e-5, 3.152e-4
0.115, 3.214e-5, 3.168e-4
0.120, 3.070e-5, 3.183e-4
0.125, 3.214e-5, 3.199e-4
0.130, 3.406e-5, 3.216e-4
0.135, 3.074e-5, 3.232e-4
0.140, 2.853e-5, 3.246e-4
0.145, 2.746e-5, 3.260e-4
0.150, 2.614e-5, 3.273e-4
0.155, 2.702e-5, 3.286e-4
0.160, 2.650e-5, 3.300e-4
0.165, 2.714e-5, 3.313e-4
0.170, 2.933e-5, 3.328e-4
0.175, 3.207e-5, 3.344e-4
0.180, 3.522e-5, 3.362e-4
0.185, 3.444e-5, 3.379e-4
0.190, 3.228e-5, 3.395e-4
0.195, 3.043e-5, 3.410e-4
0.200, 2.901e-5, 3.425e-4
0.205, 2.829e-5, 3.439e-4
0.210, 2.481e-5, 3.451e-4
0.215, 2.271e-5, 3.463e-4
0.220, 2.577e-5, 3.475e-4
0.225, 2.781e-5, 3.489e-4
0.230, 2.767e-5, 3.503e-4
0.235, 3.019e-5, 3.518e-4
0.240, 3.057e-5, 3.534e-4
0.245, 2.707e-5, 3.547e-4
0.250, 2.744e-5, 3.561e-4
0.255, 3.127e-5, 3.576e-4
0.260, 3.205e-5, 3.592e-4
0.265, 3.357e-5, 3.609e-4
0.270, 3.024e-5, 3.624e-4
0.275, 2.709e-5, 3.638e-4
0.280, 2.850e-5, 3.652e-4
0.285, 3.099e-5, 3.668e-4
0.290, 3.306e-5, 3.684e-4
0.295, 3.106e-5, 3.700e-4
0.300, 3.110e-5, 3.715e-4
0.305, 3.561e-5, 3.733e-4
0.310, 3.393e-5, 3.750e-4
0.315, 3.009e-5, 3.765e-4
0.320, 2.761e-5, 3.779e-4
0.325, 2.599e-5, 3.792e-4
0.330, 2.576e-5, 3.805e-4
0.335, 2.396e-5, 3.817e-4
0.340, 2.290e-5, 3.828e-4
0.345, 2.252e-5, 3.839e-4
0.350, 2.380e-5, 3.851e-4
0.355, 2.737e-5, 3.865e-4
0.360, 2.873e-5, 3.879e-4
0.365, 2.525e-5, 3.892e-4
0.370, 2.497e-5, 3.905e-4
0.375, 2.419e-5, 3.917e-4
0.380, 2.297e-5, 3.928e-4
0.385, 2.132e-5, 3.939e-4
0.390, 1.960e-5, 3.949e-4
0.395, 1.912e-5, 3.958e-4
0.400, 1.921e-5, 3.968e-4
0.405, 1.861e-5, 3.977e-4
0.410, 2.024e-5, 3.987e-4
0.415, 1.889e-5, 3.997e-4
0.420, 1.725e-5, 4.005e-4
0.425, 1.595e-5, 4.013e-4
0.430, 1.478e-5, 4.021e-4
0.435, 1.426e-5, 4.028e-4
0.440, 1.370e-5, 4.035e-4
0.445, 1.310e-5, 4.041e-4
0.450, 1.345e-5, 4.048e-4
0.455, 1.321e-5, 4.054e-4
0.460, 1.270e-5, 4.061e-4
0.465, 1.227e-5, 4.067e-4
0.470, 1.144e-5, 4.073e-4
0.475, 1.067e-5, 4.078e-4
0.480, 1.006e-5, 4.083e-4
0.485, 9.358e-6, 4.088e-4
0.490, 8.357e-6, 4.092e-4
0.495, 7.420e-6, 4.096e-4
0.500, 6.571e-6, 4.099e-4
0.505, 5.937e-6, 4.102e-4
0.510, 5.334e-6, 4.104e-4
0.515, 4.751e-6, 4.107e-4
0.520, 4.292e-6, 4.109e-4
0.525, 3.825e-6, 4.111e-4
0.530, 3.406e-6, 4.113e-4
0.535, 2.942e-6, 4.114e-4
0.540, 2.495e-6, 4.115e-4
0.545, 2.163e-6, 4.116e-4
0.550, 1.790e-6, 4.117e-4
0.555, 1.467e-6, 4.118e-4
0.560, 1.202e-6, 4.119e-4
0.565, 8.770e-7, 4.119e-4
0.570, 6.347e-7, 4.119e-4
0.575, 3.782e-7, 4.120e-4
0.580, 1.442e-7, 4.120e-4
0.585, -3.398e-8, 4.120e-4
0.590, -2.637e-7, 4.120e-4
0.595, -4.108e-7, 4.119e-4
0.600, -5.755e-7, 4.119e-4
0.605, -7.478e-7, 4.119e-4
0.610, -8.377e-7, 4.118e-4
0.615, -9.881e-7, 4.118e-4
0.620, -1.080e-6, 4.117e-4
0.625, -1.163e-6, 4.117e-4
0.630, -1.284e-6, 4.116e-4
0.635, -1.315e-6, 4.115e-4
0.640, -1.411e-6, 4.115e-4
0.645, -1.470e-6, 4.114e-4
0.650, -1.497e-6, 4.113e-4
0.655, -1.591e-6, 4.112e-4
0.660, -1.596e-6, 4.112e-4
0.665, -1.657e-6, 4.111e-4
0.670, -1.705e-6, 4.110e-4
0.675, -1.703e-6, 4.109e-4
0.680, -1.778e-6, 4.108e-4
0.685, -1.778e-6, 4.107e-4
0.690, -1.812e-6, 4.106e-4
0.695, -1.863e-6, 4.105e-4
0.700, -1.848e-6, 4.104e-4
0.705, -1.916e-6, 4.104e-4
0.710, -1.920e-6, 4.103e-4
0.715, -1.940e-6, 4.102e-4
0.720, -1.996e-6, 4.101e-4
0.725, -1.976e-6, 4.100e-4
0.730, -2.032e-6, 4.099e-4
0.735, -2.045e-6, 4.098e-4
0.740, -2.046e-6, 4.097e-4
0.745, -2.106e-6, 4.095e-4
0.750, -2.090e-6, 4.094e-4
0.755, -2.133e-6, 4.093e-4
0.760, -2.158e-6, 4.092e-4
0.765, -2.153e-6, 4.091e-4
0.770, -2.213e-6, 4.090e-4
0.775, -2.202e-6, 4.089e-4
0.780, -2.232e-6, 4.088e-4
0.785, -2.269e-6, 4.087e-4
0.790, -2.258e-6, 4.086e-4
0.795, -2.314e-6, 4.084e-4
0.800, -2.316e-6, 4.083e-4
0.805, -2.336e-6, 4.082e-4
0.810, -2.383e-6, 4.081e-4
0.815, -2.370e-6, 4.080e-4
0.820, -2.425e-6, 4.079e-4
0.825, -2.440e-6, 4.077e-4
0.830, -2.451e-6, 4.076e-4
0.835, -2.504e-6, 4.075e-4
0.840, -2.495e-6, 4.074e-4
0.845, -2.537e-6, 4.072e-4
0.850, -2.563e-6, 4.071e-4
0.855, -2.567e-6, 4.070e-4
0.860, -2.622e-6, 4.068e-4
0.865, -2.620e-6, 4.067e-4
0.870, -2.657e-6, 4.066e-4
0.875, -2.692e-6, 4.064e-4
0.880, -2.694e-6, 4.063e-4
0.885, -2.746e-6, 4.062e-4
0.890, -2.752e-6, 4.060e-4
0.895, -2.779e-6, 4.059e-4
0.900, -2.820e-6, 4.058e-4
0.905, -2.819e-6, 4.056e-4
0.910, -2.873e-6, 4.055e-4
0.915, -2.885e-6, 4.053e-4
0.920, -2.910e-6, 4.052e-4
0.925, -2.956e-6, 4.050e-4
0.930, -2.954e-6, 4.049e-4
0.935, -3.000e-6, 4.047e-4
0.940, -3.021e-6, 4.046e-4
0.945, -3.033e-6, 4.044e-4
0.950, -3.086e-6, 4.043e-4
0.955, -3.085e-6, 4.041e-4
0.960, -3.125e-6, 4.040e-4
0.965, -3.155e-6, 4.038e-4
0.970, -3.161e-6, 4.037e-4
0.975, -3.220e-6, 4.035e-4
0.980, -3.220e-6, 4.033e-4
0.985, -3.254e-6, 4.032e-4
0.990, -3.287e-6, 4.030e-4
0.995, -3.288e-6, 4.028e-4
1.000, -3.335e-6, 4.027e-4
1.005, -3.341e-6, 4.025e-4
1.010, -3.364e-6, 4.023e-4
1.015, -3.402e-6, 4.022e-4
1.020, -3.396e-6, 4.020e-4
1.025, -3.434e-6, 4.018e-4
1.030, -3.444e-6, 4.017e-4
1.035, -3.456e-6, 4.015e-4
1.040, -3.495e-6, 4.013e-4
1.045, -3.488e-6, 4.011e-4
1.050, -3.520e-6, 4.010e-4
1.055, -3.533e-6, 4.008e-4
1.060, -3.534e-6, 4.006e-4
1.065, -3.576e-6, 4.004e-4
1.070, -3.565e-6, 4.002e-4
1.075, -3.592e-6, 4.001e-4
1.080, -3.608e-6, 3.999e-4
1.085, -3.600e-6, 3.997e-4
1.090, -3.637e-6, 3.995e-4
1.095, -3.629e-6, 3.993e-4
1.100, -3.326e-6, 3.992e-4

Segment 3:
1.095, -2.813e-6, 3.990e-4
1.090, -2.417e-6, 3.989e-4
1.085, -2.136e-6, 3.988e-4
1.080, -1.885e-6, 3.987e-4
1.075, -1.675e-6, 3.986e-4
1.070, -1.522e-6, 3.986e-4
1.065, -1.357e-6, 3.985e-4
1.060, -1.239e-6, 3.984e-4
1.055, -1.129e-6, 3.984e-4
1.050, -1.014e-6, 3.983e-4
1.045, -9.455e-7, 3.983e-4
1.040, -8.506e-7, 3.982e-4
1.035, -7.771e-7, 3.982e-4
1.030, -7.219e-7, 3.982e-4
1.025, -6.481e-7, 3.981e-4
1.020, -6.107e-7, 3.981e-4
1.015, -5.522e-7, 3.981e-4
1.010, -5.033e-7, 3.980e-4
1.005, -4.742e-7, 3.980e-4
1.000, -4.169e-7, 3.980e-4
0.995, -3.961e-7, 3.980e-4
0.990, -3.595e-7, 3.980e-4
0.985, -3.182e-7, 3.979e-4
0.980, -3.060e-7, 3.979e-4
0.975, -2.600e-7, 3.979e-4
0.970, -2.465e-7, 3.979e-4
0.965, -2.216e-7, 3.979e-4
0.960, -1.838e-7, 3.979e-4
0.955, -1.831e-7, 3.979e-4
0.950, -1.467e-7, 3.979e-4
0.945, -1.328e-7, 3.979e-4
0.940, -1.198e-7, 3.979e-4
0.935, -8.487e-8, 3.978e-4
0.930, -8.720e-8, 3.978e-4
0.925, -5.843e-8, 3.978e-4
0.920, -4.134e-8, 3.978e-4
0.915, -3.967e-8, 3.978e-4
0.910, -2.964e-9, 3.978e-4
0.905, -7.520e-9, 3.978e-4
0.900, 1.270e-8, 3.978e-4
0.895, 3.242e-8, 3.978e-4
0.890, 2.749e-8, 3.978e-4
0.885, 6.225e-8, 3.978e-4
0.880, 6.035e-8, 3.978e-4
0.875, 7.356e-8, 3.978e-4
0.870, 1.005e-7, 3.979e-4
0.865, 9.089e-8, 3.979e-4
0.860, 1.192e-7, 3.979e-4
0.855, 1.257e-7, 3.979e-4
0.850, 1.284e-7, 3.979e-4
0.845, 1.579e-7, 3.979e-4
0.840, 1.486e-7, 3.979e-4
0.835, 1.734e-7, 3.979e-4
0.830, 1.853e-7, 3.979e-4
0.825, 1.828e-7, 3.979e-4
0.820, 2.144e-7, 3.979e-4
0.815, 2.064e-7, 3.979e-4
0.810, 2.263e-7, 3.980e-4
0.805, 2.446e-7, 3.980e-4
0.800, 2.357e-7, 3.980e-4
0.795, 2.691e-7, 3.980e-4
0.790, 2.657e-7, 3.980e-4
0.785, 2.788e-7, 3.980e-4
0.780, 3.048e-7, 3.980e-4
0.775, 2.939e-7, 3.980e-4
0.770, 3.277e-7, 3.981e-4
0.765, 3.285e-7, 3.981e-4
0.760, 3.355e-7, 3.981e-4
0.755, 3.675e-7, 3.981e-4
0.750, 3.563e-7, 3.981e-4
0.745, 3.873e-7, 3.982e-4
0.740, 3.987e-7, 3.982e-4
0.735, 3.994e-7, 3.982e-4
0.730, 4.348e-7, 3.982e-4
0.725, 4.275e-7, 3.982e-4
0.720, 4.551e-7, 3.983e-4
0.715, 4.760e-7, 3.983e-4
0.710, 4.727e-7, 3.983e-4
0.705, 5.139e-7, 3.983e-4
0.700, 5.107e-7, 3.984e-4
0.695, 5.341e-7, 3.984e-4
0.690, 5.629e-7, 3.984e-4
0.685, 5.574e-7, 3.984e-4
0.680, 6.009e-7, 3.985e-4
0.675, 6.066e-7, 3.985e-4
0.670, 6.245e-7, 3.985e-4
0.665, 6.670e-7, 3.986e-4
0.660, 6.627e-7, 3.986e-4
0.655, 7.083e-7, 3.986e-4
0.650, 7.290e-7, 3.987e-4
0.645, 7.488e-7, 3.987e-4
0.640, 7.987e-7, 3.987e-4
0.635, 8.006e-7, 3.988e-4
0.630, 8.457e-7, 3.988e-4
0.625, 8.784e-7, 3.989e-4
0.620, 8.913e-7, 3.989e-4
0.615, 9.486e-7, 3.990e-4
0.610, 9.614e-7, 3.990e-4
0.605, 1.011e-6, 3.991e-4
0.600, 1.060e-6, 3.991e-4
0.595, 1.079e-6, 3.992e-4
0.590, 1.150e-6, 3.992e-4
0.585, 1.179e-6, 3.993e-4
0.580, 1.232e-6, 3.993e-4
0.575, 1.302e-6, 3.994e-4
0.570, 1.332e-6, 3.995e-4
0.565, 1.422e-6, 3.996e-4
0.560, 1.474e-6, 3.996e-4
0.555, 1.542e-6, 3.997e-4
0.550, 1.641e-6, 3.998e-4
0.545, 1.695e-6, 3.999e-4
0.540, 1.807e-6, 4.000e-4
0.535, 1.898e-6, 4.001e-4
0.530, 1.993e-6, 4.002e-4
0.525, 2.139e-6, 4.003e-4
0.520, 2.239e-6, 4.004e-4
0.515, 2.414e-6, 4.005e-4
0.510, 2.572e-6, 4.006e-4
0.505, 2.731e-6, 4.008e-4
0.500, 2.962e-6, 4.009e-4
0.495, 3.163e-6, 4.011e-4
0.490, 3.433e-6, 4.012e-4
0.485, 3.725e-6, 4.014e-4
0.480, 4.029e-6, 4.016e-4
0.475, 4.437e-6, 4.018e-4
0.470, 4.818e-6, 4.021e-4
0.465, 5.300e-6, 4.024e-4
0.460, 5.845e-6, 4.026e-4
0.455, 6.391e-6, 4.030e-4
0.450, 7.074e-6, 4.033e-4
0.445, 7.736e-6, 4.037e-4
0.440, 8.489e-6, 4.041e-4
0.435, 9.287e-6, 4.046e-4
0.430, 1.006e-5, 4.051e-4
0.425, 1.099e-5, 4.056e-4
0.420, 1.183e-5, 4.062e-4
0.415, 1.275e-5, 4.069e-4
0.410, 1.376e-5, 4.076e-4
0.405, 1.467e-5, 4.083e-4
0.400, 1.570e-5, 4.091e-4
0.395, 1.667e-5, 4.099e-4
0.390, 1.732e-5, 4.108e-4
0.385, 1.788e-5, 4.117e-4
0.380, 1.859e-5, 4.126e-4
0.375, 1.941e-5, 4.136e-4
0.370, 1.991e-5, 4.146e-4
0.365, 2.112e-5, 4.156e-4
0.360, 2.329e-5, 4.168e-4
0.355, 2.402e-5, 4.180e-4
0.350, 2.383e-5, 4.192e-4
0.345, 2.388e-5, 4.204e-4
0.340, 2.373e-5, 4.216e-4
0.335, 2.419e-5, 4.228e-4
0.330, 2.469e-5, 4.240e-4
0.325, 2.419e-5, 4.252e-4
0.320, 2.336e-5, 4.264e-4
0.315, 2.308e-5, 4.275e-4
0.310, 2.290e-5, 4.287e-4
0.305, 2.355e-5, 4.299e-4
0.300, 2.594e-5, 4.312e-4
0.295, 2.649e-5, 4.325e-4
0.290, 2.693e-5, 4.338e-4
0.285, 2.738e-5, 4.352e-4
0.280, 2.769e-5, 4.366e-4
0.275, 2.747e-5, 4.380e-4
0.270, 2.654e-5, 4.393e-4
0.265, 2.875e-5, 4.407e-4
0.260, 3.083e-5, 4.423e-4
0.255, 2.965e-5, 4.437e-4
0.250, 2.830e-5, 4.452e-4
0.245, 2.541e-5, 4.464e-4
0.240, 2.354e-5, 4.476e-4
0.235, 2.399e-5, 4.488e-4
0.230, 2.599e-5, 4.501e-4
0.225, 2.835e-5, 4.515e-4
0.220, 2.953e-5, 4.530e-4
0.215, 2.986e-5, 4.545e-4
0.210, 2.984e-5, 4.560e-4
0.205, 2.875e-5, 4.574e-4
0.200, 2.945e-5, 4.589e-4
0.195, 3.160e-5, 4.605e-4
0.190, 3.807e-5, 4.624e-4
0.185, 4.064e-5, 4.644e-4
0.180, 3.724e-5, 4.663e-4
0.175, 3.705e-5, 4.681e-4
0.170, 3.808e-5, 4.700e-4
0.165, 3.890e-5, 4.720e-4
0.160, 3.891e-5, 4.739e-4
0.155, 3.364e-5, 4.756e-4
0.150, 3.191e-5, 4.772e-4
0.145, 3.201e-5, 4.788e-4
0.140, 2.748e-5, 4.802e-4
0.135, 2.771e-5, 4.816e-4
0.130, 2.877e-5, 4.830e-4
0.125, 3.000e-5, 4.845e-4
0.120, 2.751e-5, 4.859e-4
0.115, 2.635e-5, 4.872e-4
0.110, 3.101e-5, 4.887e-4
0.105, 3.495e-5, 4.905e-4
0.100, 3.541e-5, 4.923e-4
0.095, 3.489e-5, 4.940e-4
0.090, 3.175e-5, 4.956e-4
0.085, 2.899e-5, 4.970e-4
0.080, 3.282e-5, 4.987e-4
0.075, 3.307e-5, 5.003e-4
0.070, 3.314e-5, 5.020e-4
0.065, 3.035e-5, 5.035e-4
0.060, 2.865e-5, 5.049e-4
0.055, 2.881e-5, 5.064e-4
0.050, 3.053e-5, 5.079e-4
0.045, 3.018e-5, 5.094e-4
0.040, 2.715e-5, 5.108e-4
0.035, 2.882e-5, 5.122e-4
0.030, 2.918e-5, 5.137e-4
0.025, 3.060e-5, 5.152e-4
0.020, 3.678e-5, 5.170e-4
0.015, 3.670e-5, 5.189e-4
0.010, 3.887e-5, 5.208e-4
0.005, 3.519e-5, 5.226e-4
0.000, 2.943e-5, 5.241e-4
-0.005, 2.660e-5, 5.254e-4
-0.010, 2.782e-5, 5.268e-4
-0.015, 3.003e-5, 5.283e-4
-0.020, 2.890e-5, 5.297e-4
-0.025, 3.054e-5, 5.312e-4
-0.030, 3.109e-5, 5.328e-4
-0.035, 2.932e-5, 5.343e-4
-0.040, 2.610e-5, 5.356e-4
-0.045, 2.518e-5, 5.368e-4
-0.050, 2.474e-5, 5.381e-4
-0.055, 2.531e-5, 5.393e-4
-0.060, 2.463e-5, 5.406e-4
-0.065, 2.660e-5, 5.419e-4
-0.070, 3.420e-5, 5.436e-4
-0.075, 3.724e-5, 5.455e-4
-0.080, 3.566e-5, 5.472e-4
-0.085, 2.991e-5, 5.487e-4
-0.090, 2.887e-5, 5.502e-4
-0.095, 2.900e-5, 5.516e-4
-0.100, 2.866e-5, 5.531e-4
-0.105, 2.682e-5, 5.544e-4
-0.110, 2.809e-5, 5.558e-4
-0.115, 2.822e-5, 5.572e-4
-0.120, 2.648e-5, 5.586e-4
-0.125, 2.458e-5, 5.598e-4
-0.130, 2.744e-5, 5.612e-4
-0.135, 3.589e-5, 5.629e-4
-0.140, 3.228e-5, 5.646e-4
-0.145, 2.726e-5, 5.659e-4
-0.150, 2.697e-5, 5.673e-4
-0.155, 2.896e-5, 5.687e-4
-0.160, 2.818e-5, 5.701e-4
-0.165, 2.655e-5, 5.715e-4
-0.170, 2.975e-5, 5.729e-4
-0.175, 3.173e-5, 5.745e-4
-0.180, 3.053e-5, 5.761e-4
-0.185, 2.798e-5, 5.775e-4
-0.190, 2.790e-5, 5.789e-4
-0.195, 2.706e-5, 5.802e-4
-0.200, 2.571e-5, 5.815e-4
-0.205, 2.395e-5, 5.827e-4
-0.210, 2.736e-5, 5.841e-4
-0.215, 3.077e-5, 5.856e-4
-0.220, 3.595e-5, 5.874e-4
-0.225, 3.844e-5, 5.893e-4
-0.230, 3.541e-5, 5.911e-4
-0.235, 3.228e-5, 5.927e-4
-0.240, 3.016e-5, 5.942e-4
-0.245, 3.058e-5, 5.957e-4
-0.250, 3.164e-5, 5.973e-4
-0.255, 3.163e-5, 5.989e-4
-0.260, 3.217e-5, 6.005e-4
-0.265, 3.317e-5, 6.022e-4
-0.270, 3.373e-5, 6.039e-4
-0.275, 3.520e-5, 6.056e-4
-0.280, 3.396e-5, 6.073e-4
-0.285, 3.504e-5, 6.091e-4
-0.290, 3.181e-5, 6.107e-4

Segment 4:
-0.285, 3.230e-5, 6.123e-4
-0.280, 3.251e-5, 6.139e-4
-0.275, 3.103e-5, 6.154e-4
-0.270, 3.304e-5, 6.171e-4
-0.265, 3.007e-5, 6.186e-4
-0.260, 2.782e-5, 6.200e-4
-0.255, 2.246e-5, 6.211e-4
-0.250, 2.210e-5, 6.222e-4
-0.245, 2.650e-5, 6.235e-4
-0.240, 2.582e-5, 6.248e-4
-0.235, 2.438e-5, 6.261e-4
-0.230, 2.395e-5, 6.273e-4
-0.225, 2.549e-5, 6.285e-4
-0.220, 3.024e-5, 6.300e-4
-0.215, 2.938e-5, 6.315e-4
-0.210, 3.139e-5, 6.331e-4
-0.205, 2.911e-5, 6.345e-4
-0.200, 2.475e-5, 6.358e-4
-0.195, 2.640e-5, 6.371e-4
-0.190, 3.149e-5, 6.387e-4
-0.185, 3.175e-5, 6.403e-4
-0.180, 3.127e-5, 6.418e-4
-0.175, 2.794e-5, 6.432e-4
-0.170, 2.631e-5, 6.445e-4
-0.165, 2.460e-5, 6.458e-4
-0.160, 2.403e-5, 6.470e-4
-0.155, 2.545e-5, 6.482e-4
-0.150, 2.866e-5, 6.497e-4
-0.145, 3.067e-5, 6.512e-4
-0.140, 2.841e-5, 6.526e-4
-0.135, 2.625e-5, 6.539e-4
-0.130, 3.048e-5, 6.555e-4
-0.125, 3.164e-5, 6.570e-4
-0.120, 3.523e-5, 6.588e-4
-0.115, 4.057e-5, 6.608e-4
-0.110, 3.353e-5, 6.625e-4
-0.105, 3.338e-5, 6.642e-4
-0.100, 3.186e-5, 6.658e-4
-0.095, 2.875e-5, 6.672e-4
-0.090, 2.926e-5, 6.687e-4
-0.085, 3.008e-5, 6.702e-4
-0.080, 3.037e-5, 6.717e-4
-0.075, 2.981e-5, 6.732e-4
-0.070, 2.865e-5, 6.746e-4
-0.065, 2.740e-5, 6.760e-4
-0.060, 2.511e-5, 6.772e-4
-0.055, 2.385e-5, 6.784e-4
-0.050, 2.515e-5, 6.797e-4
-0.045, 2.996e-5, 6.812e-4
-0.040, 2.806e-5, 6.826e-4
-0.035, 2.638e-5, 6.839e-4
-0.030, 2.472e-5, 6.851e-4
-0.025, 2.337e-5, 6.863e-4
-0.020, 2.145e-5, 6.874e-4
-0.015, 2.193e-5, 6.885e-4
-0.010, 2.852e-5, 6.899e-4
-0.005, 3.095e-5, 6.915e-4
-0.000, 3.216e-5, 6.931e-4
0.005, 3.022e-5, 6.946e-4
0.010, 3.086e-5, 6.961e-4
0.015, 3.114e-5, 6.977e-4
0.020, 3.083e-5, 6.992e-4
0.025, 2.923e-5, 7.007e-4
0.030, 2.941e-5, 7.021e-4
0.035, 2.827e-5, 7.036e-4
0.040, 2.433e-5, 7.048e-4
0.045, 2.218e-5, 7.059e-4
0.050, 2.403e-5, 7.071e-4
0.055, 2.969e-5, 7.086e-4
0.060, 2.990e-5, 7.101e-4
0.065, 2.821e-5, 7.115e-4
0.070, 2.805e-5, 7.129e-4
0.075, 2.859e-5, 7.143e-4
0.080, 2.624e-5, 7.156e-4
0.085, 2.666e-5, 7.170e-4
0.090, 2.714e-5, 7.183e-4
0.095, 3.030e-5, 7.198e-4
0.100, 3.724e-5, 7.217e-4
0.105, 3.243e-5, 7.233e-4
0.110, 3.014e-5, 7.248e-4
0.115, 3.010e-5, 7.263e-4
0.120, 2.820e-5, 7.277e-4
0.125, 2.827e-5, 7.291e-4
0.130, 2.895e-5, 7.306e-4
0.135, 3.097e-5, 7.321e-4
0.140, 3.468e-5, 7.339e-4
0.145, 3.172e-5, 7.355e-4
0.150, 2.737e-5, 7.368e-4
0.155, 2.962e-5, 7.383e-4
0.160, 2.825e-5, 7.397e-4
0.165, 3.090e-5, 7.413e-4
0.170, 3.012e-5, 7.428e-4
0.175, 2.886e-5, 7.442e-4
0.180, 2.839e-5, 7.456e-4
0.185, 2.583e-5, 7.469e-4
0.190, 2.528e-5, 7.482e-4
0.195, 2.633e-5, 7.495e-4
0.200, 3.803e-5, 7.514e-4
0.205, 3.733e-5, 7.533e-4
0.210, 3.079e-5, 7.548e-4
0.215, 2.786e-5, 7.562e-4
0.220, 2.516e-5, 7.575e-4
0.225, 2.444e-5, 7.587e-4
0.230, 2.326e-5, 7.599e-4
0.235, 2.403e-5, 7.611e-4
0.240, 2.477e-5, 7.623e-4
0.245, 2.402e-5, 7.635e-4
0.250, 2.628e-5, 7.648e-4
0.255, 2.968e-5, 7.663e-4
0.260, 2.989e-5, 7.678e-4
0.265, 2.714e-5, 7.691e-4
0.270, 2.829e-5, 7.706e-4
0.275, 2.819e-5, 7.720e-4
0.280, 2.956e-5, 7.734e-4
0.285, 2.870e-5, 7.749e-4
0.290, 2.998e-5, 7.764e-4
0.295, 2.961e-5, 7.779e-4
0.300, 2.867e-5, 7.793e-4
0.305, 2.757e-5, 7.807e-4
0.310, 2.777e-5, 7.821e-4
0.315, 2.895e-5, 7.835e-4
0.320, 2.563e-5, 7.848e-4
0.325, 2.377e-5, 7.860e-4
0.330, 2.261e-5, 7.871e-4
0.335, 2.475e-5, 7.883e-4
0.340, 2.532e-5, 7.896e-4
0.345, 2.252e-5, 7.907e-4
0.350, 2.225e-5, 7.918e-4
0.355, 2.824e-5, 7.933e-4
0.360, 2.996e-5, 7.948e-4
0.365, 3.001e-5, 7.963e-4
0.370, 3.128e-5, 7.978e-4
0.375, 2.840e-5, 7.992e-4
0.380, 2.473e-5, 8.005e-4
0.385, 2.267e-5, 8.016e-4
0.390, 2.273e-5, 8.028e-4
0.395, 2.156e-5, 8.038e-4
0.400, 2.034e-5, 8.048e-4
0.405, 2.060e-5, 8.059e-4
0.410, 1.975e-5, 8.069e-4
0.415, 1.879e-5, 8.078e-4
0.420, 1.814e-5, 8.087e-4
0.425, 1.743e-5, 8.096e-4
0.430, 1.740e-5, 8.105e-4
0.435, 1.608e-5, 8.113e-4
0.440, 1.475e-5, 8.120e-4
0.445, 1.376e-5, 8.127e-4
0.450, 1.297e-5, 8.133e-4
0.455, 1.223e-5, 8.139e-4
0.460, 1.149e-5, 8.145e-4
0.465, 1.124e-5, 8.151e-4
0.470, 1.113e-5, 8.156e-4
0.475, 1.039e-5, 8.162e-4
0.480, 9.838e-6, 8.166e-4
0.485, 9.503e-6, 8.171e-4
0.490, 9.013e-6, 8.176e-4
0.495, 8.080e-6, 8.180e-4
0.500, 7.227e-6, 8.183e-4
0.505, 6.511e-6, 8.187e-4
0.510, 5.856e-6, 8.190e-4
0.515, 5.381e-6, 8.192e-4
0.520, 4.753e-6, 8.195e-4
0.525, 4.167e-6, 8.197e-4
0.530, 3.685e-6, 8.199e-4
0.535, 3.124e-6, 8.200e-4
0.540, 2.701e-6, 8.201e-4
0.545, 2.275e-6, 8.203e-4
0.550, 1.847e-6, 8.204e-4
0.555, 1.518e-6, 8.204e-4
0.560, 1.118e-6, 8.205e-4
0.565, 8.043e-7, 8.205e-4
0.570, 5.185e-7, 8.205e-4
0.575, 2.077e-7, 8.206e-4
0.580, 2.439e-8, 8.206e-4
0.585, -2.202e-7, 8.205e-4
0.590, -4.125e-7, 8.205e-4
0.595, -5.660e-7, 8.205e-4
0.600, -7.752e-7, 8.205e-4
0.605, -8.757e-7, 8.204e-4
0.610, -1.025e-6, 8.204e-4
0.615, -1.144e-6, 8.203e-4
0.620, -1.207e-6, 8.202e-4
0.625, -1.349e-6, 8.202e-4
0.630, -1.392e-6, 8.201e-4
0.635, -1.467e-6, 8.200e-4
0.640, -1.554e-6, 8.200e-4
0.645, -1.562e-6, 8.199e-4
0.650, -1.656e-6, 8.198e-4
0.655, -1.678e-6, 8.197e-4
0.660, -1.705e-6, 8.196e-4
0.665, -1.779e-6, 8.195e-4
0.670, -1.761e-6, 8.195e-4
0.675, -1.828e-6, 8.194e-4
0.680, -1.847e-6, 8.193e-4
0.685, -1.849e-6, 8.192e-4
0.690, -1.917e-6, 8.191e-4
0.695, -1.893e-6, 8.190e-4
0.700, -1.944e-6, 8.189e-4
0.705, -1.964e-6, 8.188e-4
0.710, -1.955e-6, 8.187e-4
0.715, -2.022e-6, 8.186e-4
0.720, -1.999e-6, 8.185e-4
0.725, -2.038e-6, 8.184e-4
0.730, -2.066e-6, 8.183e-4
0.735, -2.050e-6, 8.182e-4
0.740, -2.113e-6, 8.181e-4
0.745, -2.095e-6, 8.180e-4
0.750, -2.122e-6, 8.179e-4
0.755, -2.156e-6, 8.178e-4
0.760, -2.135e-6, 8.177e-4
0.765, -2.191e-6, 8.175e-4
0.770, -2.185e-6, 8.174e-4
0.775, -2.199e-6, 8.173e-4
0.780, -2.239e-6, 8.172e-4
0.785, -2.219e-6, 8.171e-4
0.790, -2.267e-6, 8.170e-4
0.795, -2.270e-6, 8.169e-4
0.800, -2.276e-6, 8.168e-4
0.805, -2.323e-6, 8.166e-4
0.810, -2.304e-6, 8.165e-4
0.815, -2.348e-6, 8.164e-4
0.820, -2.358e-6, 8.163e-4
0.825, -2.358e-6, 8.162e-4
0.830, -2.415e-6, 8.161e-4
0.835, -2.398e-6, 8.159e-4
0.840, -2.438e-6, 8.158e-4
0.845, -2.459e-6, 8.157e-4
0.850, -2.453e-6, 8.156e-4
0.855, -2.507e-6, 8.154e-4
0.860, -2.498e-6, 8.153e-4
0.865, -2.526e-6, 8.152e-4
0.870, -2.555e-6, 8.151e-4
0.875, -2.546e-6, 8.149e-4
0.880, -2.599e-6, 8.148e-4
0.885, -2.595e-6, 8.147e-4
0.890, -2.616e-6, 8.145e-4
0.895, -2.651e-6, 8.144e-4
0.900, -2.640e-6, 8.143e-4
0.905, -2.689e-6, 8.141e-4
0.910, -2.692e-6, 8.140e-4
0.915, -2.707e-6, 8.139e-4
0.920, -2.746e-6, 8.137e-4
0.925, -2.737e-6, 8.136e-4
0.930, -2.779e-6, 8.135e-4
0.935, -2.791e-6, 8.133e-4
0.940, -2.797e-6, 8.132e-4
0.945, -2.841e-6, 8.130e-4
0.950, -2.830e-6, 8.129e-4
0.955, -2.865e-6, 8.128e-4
0.960, -2.885e-6, 8.126e-4
0.965, -2.883e-6, 8.125e-4
0.970, -2.928e-6, 8.123e-4
0.975, -2.921e-6, 8.122e-4
0.980, -2.946e-6, 8.120e-4
0.985, -2.972e-6, 8.119e-4
0.990, -2.964e-6, 8.117e-4
0.995, -3.008e-6, 8.116e-4
1.000, -3.002e-6, 8.114e-4
1.005, -3.019e-6, 8.113e-4
1.010, -3.049e-6, 8.111e-4
1.015, -3.036e-6, 8.110e-4
1.020, -3.078e-6, 8.108e-4
1.025, -3.074e-6, 8.107e-4
1.030, -3.084e-6, 8.105e-4
1.035, -3.117e-6, 8.104e-4
1.040, -3.104e-6, 8.102e-4
1.045, -3.137e-6, 8.100e-4
1.050, -3.142e-6, 8.099e-4
1.055, -3.143e-6, 8.097e-4
1.060, -3.185e-6, 8.096e-4
1.065, -3.165e-6, 8.094e-4
1.070, -3.196e-6, 8.093e-4
1.075, -3.209e-6, 8.091e-4
1.080, -3.204e-6, 8.089e-4
1.085, -3.239e-6, 8.088e-4
1.090, -3.226e-6, 8.086e-4
1.095, -3.245e-6, 8.085e-4
1.100, -2.943e-6, 8.083e-4

Segment 5:
1.095, -2.445e-6, 8.082e-4
1.090, -2.133e-6, 8.081e-4
1.085, -1.861e-6, 8.080e-4
1.080, -1.644e-6, 8.079e-4
1.075, -1.483e-6, 8.078e-4
1.070, -1.314e-6, 8.078e-4
1.065, -1.200e-6, 8.077e-4
1.060, -1.085e-6, 8.076e-4
1.055, -9.772e-7, 8.076e-4
1.050, -9.104e-7, 8.076e-4
1.045, -8.062e-7, 8.075e-4
1.040, -7.453e-7, 8.075e-4
1.035, -6.846e-7, 8.074e-4
1.030, -6.139e-7, 8.074e-4
1.025, -5.848e-7, 8.074e-4
1.020, -5.188e-7, 8.074e-4
1.015, -4.799e-7, 8.073e-4
1.010, -4.492e-7, 8.073e-4
1.005, -3.931e-7, 8.073e-4
1.000, -3.787e-7, 8.073e-4
0.995, -3.336e-7, 8.073e-4
0.990, -2.994e-7, 8.072e-4
0.985, -2.865e-7, 8.072e-4
0.980, -2.399e-7, 8.072e-4
0.975, -2.304e-7, 8.072e-4
0.970, -2.005e-7, 8.072e-4
0.965, -1.716e-7, 8.072e-4
0.960, -1.682e-7, 8.072e-4
0.955, -1.250e-7, 8.072e-4
0.950, -1.206e-7, 8.072e-4
0.945, -1.005e-7, 8.072e-4
0.940, -7.165e-8, 8.072e-4
0.935, -7.473e-8, 8.071e-4
0.930, -3.902e-8, 8.071e-4
0.925, -3.187e-8, 8.071e-4
0.920, -2.238e-8, 8.071e-4
0.915, 8.857e-9, 8.071e-4
0.910, 2.155e-9, 8.071e-4
0.905, 2.942e-8, 8.071e-4
0.900, 3.891e-8, 8.071e-4
0.895, 4.084e-8, 8.071e-4
0.890, 7.494e-8, 8.072e-4
0.885, 6.655e-8, 8.072e-4
0.880, 9.227e-8, 8.072e-4
0.875, 1.057e-7, 8.072e-4
0.870, 1.026e-7, 8.072e-4
0.865, 1.342e-7, 8.072e-4
0.860, 1.278e-7, 8.072e-4
0.855, 1.463e-7, 8.072e-4
0.850, 1.629e-7, 8.072e-4
0.845, 1.553e-7, 8.072e-4
0.840, 1.906e-7, 8.072e-4
0.835, 1.849e-7, 8.072e-4
0.830, 2.002e-7, 8.072e-4
0.825, 2.196e-7, 8.072e-4
0.820, 2.104e-7, 8.073e-4
0.815, 2.422e-7, 8.073e-4
0.810, 2.419e-7, 8.073e-4
0.805, 2.494e-7, 8.073e-4
0.800, 2.787e-7, 8.073e-4
0.795, 2.655e-7, 8.073e-4
0.790, 2.970e-7, 8.073e-4
0.785, 3.009e-7, 8.074e-4
0.780, 3.043e-7, 8.074e-4
0.775, 3.363e-7, 8.074e-4
0.770, 3.259e-7, 8.074e-4
0.765, 3.545e-7, 8.074e-4
0.760, 3.652e-7, 8.074e-4
0.755, 3.634e-7, 8.075e-4
0.750, 3.999e-7, 8.075e-4
0.745, 3.899e-7, 8.075e-4
0.740, 4.157e-7, 8.075e-4
0.735, 4.326e-7, 8.075e-4
0.730, 4.293e-7, 8.076e-4
0.725, 4.684e-7, 8.076e-4
0.720, 4.635e-7, 8.076e-4
0.715, 4.859e-7, 8.076e-4
0.710, 5.135e-7, 8.077e-4
0.705, 5.059e-7, 8.077e-4
0.700, 5.484e-7, 8.077e-4
0.695, 5.510e-7, 8.077e-4
0.690, 5.675e-7, 8.078e-4
0.685, 6.033e-7, 8.078e-4
0.680, 5.970e-7, 8.078e-4
0.675, 6.392e-7, 8.079e-4
0.670, 6.516e-7, 8.079e-4
0.665, 6.658e-7, 8.079e-4
0.660, 7.138e-7, 8.080e-4
0.655, 7.102e-7, 8.080e-4
0.650, 7.621e-7, 8.080e-4
0.645, 7.860e-7, 8.081e-4
0.640, 7.981e-7, 8.081e-4
0.635, 8.520e-7, 8.082e-4
0.630, 8.566e-7, 8.082e-4
0.625, 9.017e-7, 8.082e-4
0.620, 9.402e-7, 8.083e-4
0.615, 9.498e-7, 8.083e-4
0.610, 1.019e-6, 8.084e-4
0.605, 1.032e-6, 8.084e-4
0.600, 1.083e-6, 8.085e-4
0.595, 1.137e-6, 8.085e-4
0.590, 1.158e-6, 8.086e-4
0.585, 1.237e-6, 8.087e-4
0.580, 1.270e-6, 8.087e-4
0.575, 1.327e-6, 8.088e-4
0.570, 1.405e-6, 8.089e-4
0.565, 1.441e-6, 8.089e-4
0.560, 1.542e-6, 8.090e-4
0.555, 1.600e-6, 8.091e-4
0.550, 1.677e-6, 8.092e-4
0.545, 1.786e-6, 8.093e-4
0.540, 1.850e-6, 8.094e-4
0.535, 1.980e-6, 8.095e-4
0.530, 2.083e-6, 8.096e-4
0.525, 2.198e-6, 8.097e-4
0.520, 2.375e-6, 8.098e-4
0.515, 2.495e-6, 8.099e-4
0.510, 2.695e-6, 8.101e-4
0.505, 2.880e-6, 8.102e-4
0.500, 3.090e-6, 8.104e-4
0.495, 3.370e-6, 8.105e-4
0.490, 3.614e-6, 8.107e-4
0.485, 3.969e-6, 8.109e-4
0.480, 4.333e-6, 8.111e-4
0.475, 4.725e-6, 8.114e-4
0.470, 5.239e-6, 8.116e-4
0.465, 5.737e-6, 8.119e-4
0.460, 6.379e-6, 8.122e-4
0.455, 7.056e-6, 8.126e-4
0.450, 7.759e-6, 8.130e-4
0.445, 8.607e-6, 8.134e-4
0.440, 9.427e-6, 8.139e-4
0.435, 1.034e-5, 8.144e-4
0.430, 1.129e-5, 8.149e-4
0.425, 1.222e-5, 8.156e-4
0.420, 1.334e-5, 8.162e-4
0.415, 1.440e-5, 8.169e-4
0.410, 1.531e-5, 8.177e-4
0.405, 1.608e-5, 8.185e-4
0.400, 1.687e-5, 8.194e-4
0.395, 1.804e-5, 8.203e-4
0.390, 1.880e-5, 8.212e-4
0.385, 1.936e-5, 8.222e-4
0.380, 1.982e-5, 8.232e-4
0.375, 2.043e-5, 8.242e-4
0.370, 2.090e-5, 8.252e-4
0.365, 2.144e-5, 8.263e-4
0.360, 2.252e-5, 8.274e-4
0.355, 2.250e-5, 8.285e-4
0.350, 2.311e-5, 8.297e-4
0.345, 2.358e-5, 8.309e-4
0.340, 2.351e-5, 8.321e-4
0.335, 2.355e-5, 8.332e-4
0.330, 2.411e-5, 8.344e-4
0.325, 2.582e-5, 8.357e-4
0.320, 2.624e-5, 8.370e-4
0.315, 2.617e-5, 8.383e-4
0.310, 2.480e-5, 8.396e-4
0.305, 2.398e-5, 8.408e-4
0.300, 2.472e-5, 8.420e-4
0.295, 2.492e-5, 8.433e-4
0.290, 2.557e-5, 8.445e-4
0.285, 2.766e-5, 8.459e-4
0.280, 3.066e-5, 8.475e-4
0.275, 3.017e-5, 8.490e-4
0.270, 2.744e-5, 8.503e-4
0.265, 2.783e-5, 8.517e-4
0.260, 2.729e-5, 8.531e-4
0.255, 2.622e-5, 8.544e-4
0.250, 2.413e-5, 8.556e-4
0.245, 2.285e-5, 8.568e-4
0.240, 2.668e-5, 8.581e-4
0.235, 3.244e-5, 8.597e-4
0.230, 3.368e-5, 8.614e-4
0.225, 3.260e-5, 8.630e-4
0.220, 3.356e-5, 8.647e-4
0.215, 3.331e-5, 8.664e-4
0.210, 2.992e-5, 8.679e-4
0.205, 2.848e-5, 8.693e-4
0.200, 2.889e-5, 8.707e-4
0.195, 2.877e-5, 8.722e-4
0.190, 2.914e-5, 8.736e-4
0.185, 3.080e-5, 8.752e-4
0.180, 2.999e-5, 8.767e-4
0.175, 3.156e-5, 8.783e-4
0.170, 3.075e-5, 8.798e-4
0.165, 2.845e-5, 8.812e-4
0.160, 2.883e-5, 8.827e-4
0.155, 2.858e-5, 8.841e-4
0.150, 3.015e-5, 8.856e-4
0.145, 3.055e-5, 8.871e-4
0.140, 3.041e-5, 8.886e-4
0.135, 3.198e-5, 8.902e-4
0.130, 3.388e-5, 8.919e-4
0.125, 3.075e-5, 8.935e-4
0.120, 3.111e-5, 8.950e-4
0.115, 2.994e-5, 8.965e-4
0.110, 2.973e-5, 8.980e-4
0.105, 3.001e-5, 8.995e-4
0.100, 2.975e-5, 9.010e-4
0.095, 2.753e-5, 9.024e-4
0.090, 2.759e-5, 9.038e-4
0.085, 2.638e-5, 9.051e-4
0.080, 2.711e-5, 9.064e-4
0.075, 2.789e-5, 9.078e-4
0.070, 2.748e-5, 9.092e-4
0.065, 2.822e-5, 9.106e-4
0.060, 2.857e-5, 9.120e-4
0.055, 2.663e-5, 9.134e-4
0.050, 2.512e-5, 9.146e-4
0.045, 2.813e-5, 9.160e-4
0.040, 2.836e-5, 9.174e-4
0.035, 2.844e-5, 9.189e-4
0.030, 3.117e-5, 9.204e-4
0.025, 2.976e-5, 9.219e-4
0.020, 2.865e-5, 9.233e-4
0.015, 2.769e-5, 9.247e-4
0.010, 2.790e-5, 9.261e-4
0.005, 3.185e-5, 9.277e-4
0.000, 3.064e-5, 9.293e-4
-0.005, 3.140e-5, 9.308e-4
-0.010, 2.804e-5, 9.322e-4
-0.015, 2.477e-5, 9.335e-4
-0.020, 2.470e-5, 9.347e-4
-0.025, 2.635e-5, 9.360e-4
-0.030, 2.703e-5, 9.374e-4
-0.035, 3.002e-5, 9.389e-4
-0.040, 3.247e-5, 9.405e-4
-0.045, 3.356e-5, 9.422e-4
-0.050, 3.518e-5, 9.439e-4
-0.055, 3.777e-5, 9.458e-4
-0.060, 3.597e-5, 9.476e-4
-0.065, 3.093e-5, 9.492e-4
-0.070, 2.872e-5, 9.506e-4
-0.075, 2.655e-5, 9.519e-4
-0.080, 2.796e-5, 9.533e-4
-0.085, 3.083e-5, 9.549e-4
-0.090, 3.039e-5, 9.564e-4
-0.095, 3.130e-5, 9.579e-4
-0.100, 2.850e-5, 9.594e-4
-0.105, 3.309e-5, 9.610e-4
-0.110, 3.394e-5, 9.627e-4
-0.115, 3.498e-5, 9.645e-4
-0.120, 3.571e-5, 9.663e-4
-0.125, 3.207e-5, 9.679e-4
-0.130, 2.926e-5, 9.693e-4
-0.135, 3.080e-5, 9.709e-4
-0.140, 3.083e-5, 9.724e-4
-0.145, 3.166e-5, 9.740e-4
-0.150, 3.235e-5, 9.756e-4
-0.155, 3.055e-5, 9.771e-4
-0.160, 2.737e-5, 9.785e-4
-0.165, 2.776e-5, 9.799e-4
-0.170, 3.017e-5, 9.814e-4
-0.175, 3.278e-5, 9.830e-4
-0.180, 3.287e-5, 9.847e-4
-0.185, 3.323e-5, 9.863e-4
-0.190, 3.171e-5, 9.879e-4
-0.195, 3.132e-5, 9.895e-4
-0.200, 3.069e-5, 9.910e-4
-0.205, 2.975e-5, 9.925e-4
-0.210, 3.392e-5, 9.942e-4
-0.215, 3.390e-5, 9.959e-4
-0.220, 3.503e-5, 9.977e-4
-0.225, 3.426e-5, 9.994e-4
-0.230, 3.217e-5, 1.001e-3
-0.235, 3.052e-5, 1.003e-3
-0.240, 3.064e-5, 1.004e-3
-0.245, 2.915e-5, 1.005e-3
-0.250, 3.253e-5, 1.007e-3
-0.255, 3.362e-5, 1.009e-3
-0.260, 3.351e-5, 1.010e-3
-0.265, 3.058e-5, 1.012e-3
-0.270, 2.811e-5, 1.013e-3
-0.275, 2.669e-5, 1.015e-3
-0.280, 3.009e-5, 1.016e-3
-0.285, 2.906e-5, 1.018e-3
-0.290, 2.995e-5, 1.019e-3

Segment 6:
-0.285, 3.119e-5, 1.021e-3
-0.280, 3.201e-5, 1.022e-3
-0.275, 3.258e-5, 1.024e-3
-0.270, 3.612e-5, 1.026e-3
-0.265, 3.955e-5, 1.028e-3
-0.260, 4.070e-5, 1.030e-3
-0.255, 3.227e-5, 1.031e-3
-0.250, 2.943e-5, 1.033e-3
-0.245, 2.987e-5, 1.034e-3
-0.240, 2.827e-5, 1.036e-3
-0.235, 2.979e-5, 1.037e-3
-0.230, 2.998e-5, 1.039e-3
-0.225, 2.597e-5, 1.040e-3
-0.220, 2.608e-5, 1.041e-3
-0.215, 2.615e-5, 1.043e-3
-0.210, 2.824e-5, 1.044e-3
-0.205, 3.053e-5, 1.046e-3
-0.200, 3.000e-5, 1.047e-3
-0.195, 2.869e-5, 1.049e-3
-0.190, 2.823e-5, 1.050e-3
-0.185, 2.496e-5, 1.051e-3
-0.180, 2.401e-5, 1.052e-3
-0.175, 2.970e-5, 1.054e-3
-0.170, 3.755e-5, 1.056e-3
-0.165, 3.305e-5, 1.057e-3
-0.160, 2.837e-5, 1.059e-3
-0.155, 2.575e-5, 1.060e-3
-0.150, 2.492e-5, 1.061e-3
-0.145, 2.717e-5, 1.063e-3
-0.140, 3.047e-5, 1.064e-3
-0.135, 3.050e-5, 1.066e-3
-0.130, 2.906e-5, 1.067e-3
-0.125, 3.383e-5, 1.069e-3
-0.120, 3.345e-5, 1.071e-3
-0.115, 3.367e-5, 1.072e-3
-0.110, 3.327e-5, 1.074e-3
-0.105, 3.198e-5, 1.076e-3
-0.100, 3.796e-5, 1.077e-3
-0.095, 3.781e-5, 1.079e-3
-0.090, 3.666e-5, 1.081e-3
-0.085, 3.582e-5, 1.083e-3
-0.080, 2.982e-5, 1.084e-3
-0.075, 2.746e-5, 1.086e-3
-0.070, 2.492e-5, 1.087e-3
-0.065, 2.501e-5, 1.088e-3
-0.060, 2.659e-5, 1.090e-3
-0.055, 2.601e-5, 1.091e-3
-0.050, 2.675e-5, 1.092e-3
-0.045, 2.498e-5, 1.094e-3
-0.040, 2.280e-5, 1.095e-3
-0.035, 2.348e-5, 1.096e-3
-0.030, 2.237e-5, 1.097e-3
-0.025, 2.232e-5, 1.098e-3
-0.020, 2.499e-5, 1.099e-3
-0.015, 2.799e-5, 1.101e-3
-0.010, 3.082e-5, 1.102e-3
-0.005, 3.141e-5, 1.104e-3
-0.000, 2.949e-5, 1.105e-3
0.005, 3.274e-5, 1.107e-3
0.010, 3.229e-5, 1.109e-3
0.015, 2.889e-5, 1.110e-3
0.020, 2.578e-5, 1.111e-3
0.025, 2.481e-5, 1.113e-3
0.030, 2.638e-5, 1.114e-3
0.035, 2.638e-5, 1.115e-3
0.040, 3.261e-5, 1.117e-3
0.045, 2.999e-5, 1.118e-3
0.050, 2.620e-5, 1.120e-3
0.055, 2.387e-5, 1.121e-3
0.060, 2.433e-5, 1.122e-3
0.065, 2.392e-5, 1.123e-3
0.070, 2.983e-5, 1.125e-3
0.075, 3.009e-5, 1.126e-3
0.080, 2.896e-5, 1.128e-3
0.085, 2.955e-5, 1.129e-3
0.090, 3.426e-5, 1.131e-3
0.095, 4.228e-5, 1.133e-3
0.100, 3.769e-5, 1.135e-3
0.105, 3.272e-5, 1.137e-3
0.110, 2.876e-5, 1.138e-3
0.115, 2.931e-5, 1.139e-3
0.120, 3.226e-5, 1.141e-3
0.125, 3.076e-5, 1.143e-3
0.130, 2.897e-5, 1.144e-3
0.135, 2.650e-5, 1.145e-3
0.140, 2.744e-5, 1.147e-3
0.145, 3.002e-5, 1.148e-3
0.150, 3.037e-5, 1.150e-3
0.155, 2.920e-5, 1.151e-3
0.160, 2.663e-5, 1.153e-3
0.165, 2.928e-5, 1.154e-3
0.170, 3.145e-5, 1.156e-3
0.175, 3.117e-5, 1.157e-3
0.180, 3.014e-5, 1.159e-3
0.185, 2.852e-5, 1.160e-3
0.190, 2.654e-5, 1.161e-3
0.195, 2.623e-5, 1.163e-3
0.200, 2.430e-5, 1.164e-3
0.205, 2.526e-5, 1.165e-3
0.210, 2.915e-5, 1.167e-3
0.215, 3.573e-5, 1.168e-3
0.220, 3.592e-5, 1.170e-3
0.225, 3.314e-5, 1.172e-3
0.230, 3.305e-5, 1.174e-3
0.235, 3.265e-5, 1.175e-3
0.240, 2.985e-5, 1.177e-3
0.245, 3.167e-5, 1.178e-3
0.250, 2.923e-5, 1.180e-3
0.255, 2.611e-5, 1.181e-3
0.260, 2.437e-5, 1.182e-3
0.265, 2.317e-5, 1.183e-3
0.270, 2.431e-5, 1.185e-3
0.275, 2.497e-5, 1.186e-3
0.280, 2.700e-5, 1.187e-3
0.285, 3.021e-5, 1.189e-3
0.290, 2.851e-5, 1.190e-3
0.295, 2.796e-5, 1.192e-3
0.300, 2.803e-5, 1.193e-3
0.305, 2.614e-5, 1.194e-3
0.310, 2.420e-5, 1.195e-3
0.315, 2.490e-5, 1.197e-3
0.320, 2.618e-5, 1.198e-3
0.325, 2.659e-5, 1.199e-3
0.330, 2.558e-5, 1.201e-3
0.335, 2.518e-5, 1.202e-3
0.340, 2.259e-5, 1.203e-3
0.345, 2.138e-5, 1.204e-3
0.350, 2.229e-5, 1.205e-3
0.355, 2.393e-5, 1.206e-3
0.360, 2.496e-5, 1.208e-3
0.365, 2.273e-5, 1.209e-3
0.370, 2.255e-5, 1.210e-3
0.375, 2.712e-5, 1.211e-3
0.380, 2.558e-5, 1.213e-3
0.385, 2.372e-5, 1.214e-3
0.390, 2.221e-5, 1.215e-3
0.395, 2.149e-5, 1.216e-3
0.400, 2.117e-5, 1.217e-3
0.405, 2.091e-5, 1.218e-3
0.410, 2.073e-5, 1.219e-3
0.415, 1.917e-5, 1.220e-3
0.420, 1.741e-5, 1.221e-3
0.425, 1.608e-5, 1.222e-3
0.430, 1.510e-5, 1.222e-3
0.435, 1.441e-5, 1.223e-3
0.440, 1.405e-5, 1.224e-3
0.445, 1.459e-5, 1.225e-3
0.450, 1.402e-5, 1.225e-3
0.455, 1.313e-5, 1.226e-3
0.460, 1.223e-5, 1.227e-3
0.465, 1.077e-5, 1.227e-3
0.470, 1.005e-5, 1.228e-3
0.475, 9.932e-6, 1.228e-3
0.480, 1.020e-5, 1.229e-3
0.485, 9.848e-6, 1.229e-3
0.490, 9.042e-6, 1.230e-3
0.495, 8.433e-6, 1.230e-3
0.500, 7.820e-6, 1.230e-3
0.505, 7.120e-6, 1.231e-3
0.510, 6.428e-6, 1.231e-3
0.515, 5.628e-6, 1.231e-3
0.520, 4.954e-6, 1.232e-3
0.525, 4.323e-6, 1.232e-3
0.530, 3.732e-6, 1.232e-3
0.535, 3.334e-6, 1.232e-3
0.540, 2.826e-6, 1.232e-3
0.545, 2.392e-6, 1.232e-3
0.550, 2.009e-6, 1.232e-3
0.555, 1.528e-6, 1.233e-3
0.560, 1.196e-6, 1.233e-3
0.565, 8.320e-7, 1.233e-3
0.570, 4.981e-7, 1.233e-3
0.575, 2.633e-7, 1.233e-3
0.580, -4.104e-8, 1.233e-3
0.585, -2.401e-7, 1.233e-3
0.590, -4.476e-7, 1.233e-3
0.595, -6.663e-7, 1.233e-3
0.600, -7.793e-7, 1.233e-3
0.605, -9.711e-7, 1.233e-3
0.610, -1.082e-6, 1.232e-3
0.615, -1.165e-6, 1.232e-3
0.620, -1.315e-6, 1.232e-3
0.625, -1.350e-6, 1.232e-3
0.630, -1.456e-6, 1.232e-3
0.635, -1.525e-6, 1.232e-3
0.640, -1.549e-6, 1.232e-3
0.645, -1.650e-6, 1.232e-3
0.650, -1.653e-6, 1.232e-3
0.655, -1.710e-6, 1.232e-3
0.660, -1.764e-6, 1.232e-3
0.665, -1.755e-6, 1.232e-3
0.670, -1.834e-6, 1.232e-3
0.675, -1.828e-6, 1.231e-3
0.680, -1.854e-6, 1.231e-3
0.685, -1.908e-6, 1.231e-3
0.690, -1.881e-6, 1.231e-3
0.695, -1.944e-6, 1.231e-3
0.700, -1.942e-6, 1.231e-3
0.705, -1.951e-6, 1.231e-3
0.710, -2.005e-6, 1.231e-3
0.715, -1.977e-6, 1.231e-3
0.720, -2.031e-6, 1.231e-3
0.725, -2.039e-6, 1.230e-3
0.730, -2.034e-6, 1.230e-3
0.735, -2.088e-6, 1.230e-3
0.740, -2.062e-6, 1.230e-3
0.745, -2.101e-6, 1.230e-3
0.750, -2.118e-6, 1.230e-3
0.755, -2.105e-6, 1.230e-3
0.760, -2.159e-6, 1.230e-3
0.765, -2.141e-6, 1.230e-3
0.770, -2.168e-6, 1.230e-3
0.775, -2.196e-6, 1.229e-3
0.780, -2.175e-6, 1.229e-3
0.785, -2.228e-6, 1.229e-3
0.790, -2.219e-6, 1.229e-3
0.795, -2.233e-6, 1.229e-3
0.800, -2.271e-6, 1.229e-3
0.805, -2.251e-6, 1.229e-3
0.810, -2.298e-6, 1.229e-3
0.815, -2.300e-6, 1.229e-3
0.820, -2.303e-6, 1.228e-3
0.825, -2.347e-6, 1.228e-3
0.830, -2.330e-6, 1.228e-3
0.835, -2.371e-6, 1.228e-3
0.840, -2.388e-6, 1.228e-3
0.845, -2.382e-6, 1.228e-3
0.850, -2.437e-6, 1.228e-3
0.855, -2.423e-6, 1.228e-3
0.860, -2.453e-6, 1.227e-3
0.865, -2.481e-6, 1.227e-3
0.870, -2.473e-6, 1.227e-3
0.875, -2.521e-6, 1.227e-3
0.880, -2.516e-6, 1.227e-3
0.885, -2.536e-6, 1.227e-3
0.890, -2.569e-6, 1.227e-3
0.895, -2.556e-6, 1.227e-3
0.900, -2.602e-6, 1.226e-3
0.905, -2.605e-6, 1.226e-3
0.910, -2.616e-6, 1.226e-3
0.915, -2.654e-6, 1.226e-3
0.920, -2.643e-6, 1.226e-3
0.925, -2.683e-6, 1.226e-3
0.930, -2.696e-6, 1.226e-3
0.935, -2.699e-6, 1.226e-3
0.940, -2.742e-6, 1.225e-3
0.945, -2.730e-6, 1.225e-3
0.950, -2.761e-6, 1.225e-3
0.955, -2.784e-6, 1.225e-3
0.960, -2.777e-6, 1.225e-3
0.965, -2.820e-6, 1.225e-3
0.970, -2.815e-6, 1.225e-3
0.975, -2.836e-6, 1.224e-3
0.980, -2.864e-6, 1.224e-3
0.985, -2.853e-6, 1.224e-3
0.990, -2.898e-6, 1.224e-3
0.995, -2.895e-6, 1.224e-3
1.000, -2.908e-6, 1.224e-3
1.005, -2.938e-6, 1.224e-3
1.010, -2.925e-6, 1.223e-3
1.015, -2.962e-6, 1.223e-3
1.020, -2.964e-6, 1.223e-3
1.025, -2.965e-6, 1.223e-3
1.030, -3.001e-6, 1.223e-3
1.035, -2.988e-6, 1.223e-3
1.040, -3.018e-6, 1.222e-3
1.045, -3.027e-6, 1.222e-3
1.050, -3.020e-6, 1.222e-3
1.055, -3.058e-6, 1.222e-3
1.060, -3.043e-6, 1.222e-3
1.065, -3.066e-6, 1.222e-3
1.070, -3.082e-6, 1.222e-3
1.075, -3.073e-6, 1.221e-3
1.080, -3.108e-6, 1.221e-3
1.085, -3.099e-6, 1.221e-3
1.090, -3.111e-6, 1.221e-3
1.095, -3.134e-6, 1.221e-3
1.100, -2.807e-6, 1.221e-3
