Nov. 1, 2023   13:47:35
Cyclic Voltammetry
File: c:\users\pku\desktop\zqk\o2-mid.txt
Data Source:  Experiment
Instrument Model:  CHI600B
Header: 
Note: 

Init E (V) = 0.65
High E (V) = 1.1
Low E (V) = -0.29
Init P/N = N
Scan Rate (V/s) = 0.1
Segment = 6
Sample Interval (V) = 0.005
Quiet Time (sec) = 2
Sensitivity (A/V) = 5e-6

Segment 1:
Ep = 0.370V
ip = 1.523e-5A
Ah = 1.221e-5C

Segment 2:

Segment 3:
Ep = 0.375V
ip = 1.518e-5A
Ah = 1.161e-5C

Ep = -0.255V
ip = 1.766e-6A
Ah = 2.147e-6C

Segment 4:
Segment 5:
Ep = 0.380V
ip = 1.568e-5A
Ah = 1.153e-5C

Ep = -0.285V
ip = 2.076e-6A
Ah = 1.367e-6C

Segment 6:

Potential/V, Current/A, Charge/C

Segment 1:
0.645, 2.239e-7, 1.120e-8
0.640, 2.754e-7, 2.497e-8
0.635, 3.163e-7, 4.078e-8
0.630, 3.517e-7, 5.837e-8
0.625, 3.874e-7, 7.774e-8
0.620, 4.210e-7, 9.879e-8
0.615, 4.540e-7, 1.215e-7
0.610, 4.944e-7, 1.462e-7
0.605, 5.347e-7, 1.729e-7
0.600, 5.762e-7, 2.018e-7
0.595, 6.205e-7, 2.328e-7
0.590, 6.689e-7, 2.662e-7
0.585, 7.243e-7, 3.024e-7
0.580, 7.841e-7, 3.416e-7
0.575, 8.439e-7, 3.838e-7
0.570, 9.086e-7, 4.293e-7
0.565, 9.803e-7, 4.783e-7
0.560, 1.056e-6, 5.311e-7
0.555, 1.140e-6, 5.881e-7
0.550, 1.229e-6, 6.495e-7
0.545, 1.330e-6, 7.160e-7
0.540, 1.437e-6, 7.879e-7
0.535, 1.560e-6, 8.659e-7
0.530, 1.691e-6, 9.505e-7
0.525, 1.836e-6, 1.042e-6
0.520, 2.000e-6, 1.142e-6
0.515, 2.179e-6, 1.251e-6
0.510, 2.390e-6, 1.371e-6
0.505, 2.614e-6, 1.501e-6
0.500, 2.864e-6, 1.645e-6
0.495, 3.156e-6, 1.802e-6
0.490, 3.476e-6, 1.976e-6
0.485, 3.846e-6, 2.169e-6
0.480, 4.261e-6, 2.382e-6
0.475, 4.730e-6, 2.618e-6
0.470, 5.257e-6, 2.881e-6
0.465, 5.855e-6, 3.174e-6
0.460, 6.519e-6, 3.500e-6
0.455, 7.243e-6, 3.862e-6
0.450, 8.018e-6, 4.263e-6
0.445, 8.849e-6, 4.705e-6
0.440, 9.715e-6, 5.191e-6
0.435, 1.061e-5, 5.721e-6
0.430, 1.149e-5, 6.296e-6
0.425, 1.238e-5, 6.915e-6
0.420, 1.323e-5, 7.576e-6
0.415, 1.403e-5, 8.278e-6
0.410, 1.476e-5, 9.016e-6
0.405, 1.542e-5, 9.787e-6
0.400, 1.599e-5, 1.059e-5
0.395, 1.647e-5, 1.141e-5
0.390, 1.685e-5, 1.225e-5
0.385, 1.714e-5, 1.311e-5
0.380, 1.734e-5, 1.398e-5
0.375, 1.746e-5, 1.485e-5
0.370, 1.751e-5, 1.572e-5
0.365, 1.750e-5, 1.660e-5
0.360, 1.744e-5, 1.747e-5
0.355, 1.734e-5, 1.834e-5
0.350, 1.720e-5, 1.920e-5
0.345, 1.706e-5, 2.005e-5
0.340, 1.691e-5, 2.090e-5
0.335, 1.674e-5, 2.173e-5
0.330, 1.657e-5, 2.256e-5
0.325, 1.641e-5, 2.338e-5
0.320, 1.624e-5, 2.419e-5
0.315, 1.609e-5, 2.500e-5
0.310, 1.593e-5, 2.580e-5
0.305, 1.577e-5, 2.658e-5
0.300, 1.564e-5, 2.737e-5
0.295, 1.553e-5, 2.814e-5
0.290, 1.540e-5, 2.891e-5
0.285, 1.528e-5, 2.968e-5
0.280, 1.517e-5, 3.044e-5
0.275, 1.507e-5, 3.119e-5
0.270, 1.496e-5, 3.194e-5
0.265, 1.484e-5, 3.268e-5
0.260, 1.476e-5, 3.342e-5
0.255, 1.471e-5, 3.415e-5
0.250, 1.463e-5, 3.488e-5
0.245, 1.453e-5, 3.561e-5
0.240, 1.446e-5, 3.633e-5
0.235, 1.442e-5, 3.705e-5
0.230, 1.439e-5, 3.777e-5
0.225, 1.428e-5, 3.849e-5
0.220, 1.418e-5, 3.920e-5
0.215, 1.412e-5, 3.990e-5
0.210, 1.406e-5, 4.061e-5
0.205, 1.399e-5, 4.130e-5
0.200, 1.393e-5, 4.200e-5
0.195, 1.383e-5, 4.269e-5
0.190, 1.376e-5, 4.338e-5
0.185, 1.375e-5, 4.407e-5
0.180, 1.370e-5, 4.475e-5
0.175, 1.362e-5, 4.543e-5
0.170, 1.356e-5, 4.611e-5
0.165, 1.352e-5, 4.679e-5
0.160, 1.344e-5, 4.746e-5
0.155, 1.337e-5, 4.813e-5
0.150, 1.330e-5, 4.879e-5
0.145, 1.322e-5, 4.945e-5
0.140, 1.318e-5, 5.011e-5
0.135, 1.311e-5, 5.077e-5
0.130, 1.301e-5, 5.142e-5
0.125, 1.294e-5, 5.207e-5
0.120, 1.291e-5, 5.271e-5
0.115, 1.286e-5, 5.335e-5
0.110, 1.278e-5, 5.399e-5
0.105, 1.268e-5, 5.463e-5
0.100, 1.261e-5, 5.526e-5
0.095, 1.256e-5, 5.589e-5
0.090, 1.250e-5, 5.651e-5
0.085, 1.241e-5, 5.713e-5
0.080, 1.232e-5, 5.775e-5
0.075, 1.223e-5, 5.836e-5
0.070, 1.217e-5, 5.897e-5
0.065, 1.210e-5, 5.957e-5
0.060, 1.203e-5, 6.017e-5
0.055, 1.198e-5, 6.077e-5
0.050, 1.193e-5, 6.137e-5
0.045, 1.188e-5, 6.196e-5
0.040, 1.185e-5, 6.256e-5
0.035, 1.181e-5, 6.315e-5
0.030, 1.179e-5, 6.374e-5
0.025, 1.178e-5, 6.432e-5
0.020, 1.176e-5, 6.491e-5
0.015, 1.174e-5, 6.550e-5
0.010, 1.175e-5, 6.609e-5
0.005, 1.179e-5, 6.668e-5
0.000, 1.178e-5, 6.727e-5
-0.005, 1.174e-5, 6.785e-5
-0.010, 1.173e-5, 6.844e-5
-0.015, 1.172e-5, 6.902e-5
-0.020, 1.176e-5, 6.961e-5
-0.025, 1.179e-5, 7.020e-5
-0.030, 1.182e-5, 7.079e-5
-0.035, 1.185e-5, 7.139e-5
-0.040, 1.189e-5, 7.198e-5
-0.045, 1.193e-5, 7.258e-5
-0.050, 1.200e-5, 7.318e-5
-0.055, 1.205e-5, 7.378e-5
-0.060, 1.209e-5, 7.438e-5
-0.065, 1.212e-5, 7.499e-5
-0.070, 1.217e-5, 7.560e-5
-0.075, 1.223e-5, 7.621e-5
-0.080, 1.226e-5, 7.682e-5
-0.085, 1.228e-5, 7.744e-5
-0.090, 1.229e-5, 7.805e-5
-0.095, 1.230e-5, 7.867e-5
-0.100, 1.232e-5, 7.928e-5
-0.105, 1.233e-5, 7.990e-5
-0.110, 1.233e-5, 8.052e-5
-0.115, 1.225e-5, 8.113e-5
-0.120, 1.220e-5, 8.174e-5
-0.125, 1.216e-5, 8.235e-5
-0.130, 1.213e-5, 8.295e-5
-0.135, 1.206e-5, 8.356e-5
-0.140, 1.200e-5, 8.416e-5
-0.145, 1.197e-5, 8.475e-5
-0.150, 1.193e-5, 8.535e-5
-0.155, 1.192e-5, 8.595e-5
-0.160, 1.190e-5, 8.654e-5
-0.165, 1.190e-5, 8.714e-5
-0.170, 1.190e-5, 8.773e-5
-0.175, 1.190e-5, 8.833e-5
-0.180, 1.191e-5, 8.892e-5
-0.185, 1.193e-5, 8.952e-5
-0.190, 1.197e-5, 9.012e-5
-0.195, 1.201e-5, 9.072e-5
-0.200, 1.203e-5, 9.132e-5
-0.205, 1.203e-5, 9.192e-5
-0.210, 1.209e-5, 9.253e-5
-0.215, 1.212e-5, 9.313e-5
-0.220, 1.216e-5, 9.374e-5
-0.225, 1.219e-5, 9.435e-5
-0.230, 1.217e-5, 9.496e-5
-0.235, 1.217e-5, 9.557e-5
-0.240, 1.218e-5, 9.618e-5
-0.245, 1.216e-5, 9.678e-5
-0.250, 1.213e-5, 9.739e-5
-0.255, 1.209e-5, 9.799e-5
-0.260, 1.201e-5, 9.859e-5
-0.265, 1.197e-5, 9.919e-5
-0.270, 1.193e-5, 9.979e-5
-0.275, 1.184e-5, 1.004e-4
-0.280, 1.177e-5, 1.010e-4
-0.285, 1.170e-5, 1.016e-4
-0.290, 9.662e-6, 1.020e-4

Segment 2:
-0.285, 8.315e-6, 1.025e-4
-0.280, 7.893e-6, 1.028e-4
-0.275, 7.584e-6, 1.032e-4
-0.270, 7.334e-6, 1.036e-4
-0.265, 7.147e-6, 1.040e-4
-0.260, 6.959e-6, 1.043e-4
-0.255, 6.779e-6, 1.046e-4
-0.250, 6.633e-6, 1.050e-4
-0.245, 6.508e-6, 1.053e-4
-0.240, 6.397e-6, 1.056e-4
-0.235, 6.307e-6, 1.059e-4
-0.230, 6.229e-6, 1.062e-4
-0.225, 6.160e-6, 1.066e-4
-0.220, 6.120e-6, 1.069e-4
-0.215, 6.094e-6, 1.072e-4
-0.210, 6.071e-6, 1.075e-4
-0.205, 6.072e-6, 1.078e-4
-0.200, 6.041e-6, 1.081e-4
-0.195, 6.034e-6, 1.084e-4
-0.190, 6.056e-6, 1.087e-4
-0.185, 6.085e-6, 1.090e-4
-0.180, 6.109e-6, 1.093e-4
-0.175, 6.166e-6, 1.096e-4
-0.170, 6.213e-6, 1.099e-4
-0.165, 6.240e-6, 1.102e-4
-0.160, 6.274e-6, 1.105e-4
-0.155, 6.326e-6, 1.108e-4
-0.150, 6.401e-6, 1.112e-4
-0.145, 6.441e-6, 1.115e-4
-0.140, 6.441e-6, 1.118e-4
-0.135, 6.455e-6, 1.121e-4
-0.130, 6.491e-6, 1.125e-4
-0.125, 6.541e-6, 1.128e-4
-0.120, 6.570e-6, 1.131e-4
-0.115, 6.613e-6, 1.134e-4
-0.110, 6.662e-6, 1.138e-4
-0.105, 6.699e-6, 1.141e-4
-0.100, 6.685e-6, 1.144e-4
-0.095, 6.664e-6, 1.148e-4
-0.090, 6.652e-6, 1.151e-4
-0.085, 6.652e-6, 1.154e-4
-0.080, 6.643e-6, 1.158e-4
-0.075, 6.626e-6, 1.161e-4
-0.070, 6.622e-6, 1.164e-4
-0.065, 6.664e-6, 1.168e-4
-0.060, 6.719e-6, 1.171e-4
-0.055, 6.769e-6, 1.174e-4
-0.050, 6.846e-6, 1.178e-4
-0.045, 6.958e-6, 1.181e-4
-0.040, 7.056e-6, 1.185e-4
-0.035, 7.124e-6, 1.188e-4
-0.030, 7.177e-6, 1.192e-4
-0.025, 7.247e-6, 1.196e-4
-0.020, 7.329e-6, 1.199e-4
-0.015, 7.397e-6, 1.203e-4
-0.010, 7.423e-6, 1.207e-4
-0.005, 7.467e-6, 1.210e-4
-0.000, 7.528e-6, 1.214e-4
0.005, 7.593e-6, 1.218e-4
0.010, 7.620e-6, 1.222e-4
0.015, 7.651e-6, 1.226e-4
0.020, 7.717e-6, 1.230e-4
0.025, 7.799e-6, 1.233e-4
0.030, 7.873e-6, 1.237e-4
0.035, 7.929e-6, 1.241e-4
0.040, 7.960e-6, 1.245e-4
0.045, 7.995e-6, 1.249e-4
0.050, 8.055e-6, 1.253e-4
0.055, 8.111e-6, 1.257e-4
0.060, 8.145e-6, 1.261e-4
0.065, 8.187e-6, 1.266e-4
0.070, 8.246e-6, 1.270e-4
0.075, 8.282e-6, 1.274e-4
0.080, 8.311e-6, 1.278e-4
0.085, 8.354e-6, 1.282e-4
0.090, 8.411e-6, 1.286e-4
0.095, 8.437e-6, 1.291e-4
0.100, 8.422e-6, 1.295e-4
0.105, 8.417e-6, 1.299e-4
0.110, 8.441e-6, 1.303e-4
0.115, 8.476e-6, 1.307e-4
0.120, 8.482e-6, 1.312e-4
0.125, 8.491e-6, 1.316e-4
0.130, 8.525e-6, 1.320e-4
0.135, 8.539e-6, 1.324e-4
0.140, 8.532e-6, 1.329e-4
0.145, 8.557e-6, 1.333e-4
0.150, 8.589e-6, 1.337e-4
0.155, 8.596e-6, 1.342e-4
0.160, 8.637e-6, 1.346e-4
0.165, 8.690e-6, 1.350e-4
0.170, 8.716e-6, 1.355e-4
0.175, 8.765e-6, 1.359e-4
0.180, 8.831e-6, 1.363e-4
0.185, 8.883e-6, 1.368e-4
0.190, 8.960e-6, 1.372e-4
0.195, 9.053e-6, 1.377e-4
0.200, 9.127e-6, 1.381e-4
0.205, 9.216e-6, 1.386e-4
0.210, 9.312e-6, 1.391e-4
0.215, 9.411e-6, 1.395e-4
0.220, 9.536e-6, 1.400e-4
0.225, 9.667e-6, 1.405e-4
0.230, 9.735e-6, 1.410e-4
0.235, 9.801e-6, 1.415e-4
0.240, 9.873e-6, 1.420e-4
0.245, 9.938e-6, 1.425e-4
0.250, 9.988e-6, 1.430e-4
0.255, 1.004e-5, 1.435e-4
0.260, 1.005e-5, 1.440e-4
0.265, 1.002e-5, 1.445e-4
0.270, 1.001e-5, 1.450e-4
0.275, 1.004e-5, 1.455e-4
0.280, 1.005e-5, 1.460e-4
0.285, 9.996e-6, 1.465e-4
0.290, 9.927e-6, 1.470e-4
0.295, 9.875e-6, 1.475e-4
0.300, 9.832e-6, 1.480e-4
0.305, 9.790e-6, 1.484e-4
0.310, 9.730e-6, 1.489e-4
0.315, 9.669e-6, 1.494e-4
0.320, 9.606e-6, 1.499e-4
0.325, 9.543e-6, 1.504e-4
0.330, 9.469e-6, 1.509e-4
0.335, 9.373e-6, 1.513e-4
0.340, 9.260e-6, 1.518e-4
0.345, 9.158e-6, 1.522e-4
0.350, 9.073e-6, 1.527e-4
0.355, 8.971e-6, 1.531e-4
0.360, 8.862e-6, 1.536e-4
0.365, 8.754e-6, 1.540e-4
0.370, 8.632e-6, 1.545e-4
0.375, 8.479e-6, 1.549e-4
0.380, 8.336e-6, 1.553e-4
0.385, 8.196e-6, 1.557e-4
0.390, 8.061e-6, 1.561e-4
0.395, 7.925e-6, 1.565e-4
0.400, 7.767e-6, 1.569e-4
0.405, 7.601e-6, 1.573e-4
0.410, 7.446e-6, 1.576e-4
0.415, 7.287e-6, 1.580e-4
0.420, 7.116e-6, 1.584e-4
0.425, 6.918e-6, 1.587e-4
0.430, 6.715e-6, 1.590e-4
0.435, 6.514e-6, 1.594e-4
0.440, 6.310e-6, 1.597e-4
0.445, 6.091e-6, 1.600e-4
0.450, 5.868e-6, 1.603e-4
0.455, 5.630e-6, 1.606e-4
0.460, 5.382e-6, 1.608e-4
0.465, 5.130e-6, 1.611e-4
0.470, 4.873e-6, 1.613e-4
0.475, 4.609e-6, 1.616e-4
0.480, 4.340e-6, 1.618e-4
0.485, 4.063e-6, 1.620e-4
0.490, 3.768e-6, 1.622e-4
0.495, 3.474e-6, 1.623e-4
0.500, 3.176e-6, 1.625e-4
0.505, 2.871e-6, 1.627e-4
0.510, 2.563e-6, 1.628e-4
0.515, 2.258e-6, 1.629e-4
0.520, 1.960e-6, 1.630e-4
0.525, 1.674e-6, 1.631e-4
0.530, 1.394e-6, 1.631e-4
0.535, 1.125e-6, 1.632e-4
0.540, 8.702e-7, 1.632e-4
0.545, 6.200e-7, 1.633e-4
0.550, 3.885e-7, 1.633e-4
0.555, 1.743e-7, 1.633e-4
0.560, -2.966e-8, 1.633e-4
0.565, -2.156e-7, 1.633e-4
0.570, -3.892e-7, 1.633e-4
0.575, -5.528e-7, 1.632e-4
0.580, -7.003e-7, 1.632e-4
0.585, -8.406e-7, 1.632e-4
0.590, -9.674e-7, 1.631e-4
0.595, -1.084e-6, 1.631e-4
0.600, -1.190e-6, 1.630e-4
0.605, -1.283e-6, 1.629e-4
0.610, -1.370e-6, 1.629e-4
0.615, -1.435e-6, 1.628e-4
0.620, -1.510e-6, 1.627e-4
0.625, -1.570e-6, 1.626e-4
0.630, -1.627e-6, 1.626e-4
0.635, -1.678e-6, 1.625e-4
0.640, -1.720e-6, 1.624e-4
0.645, -1.760e-6, 1.623e-4
0.650, -1.794e-6, 1.622e-4
0.655, -1.828e-6, 1.621e-4
0.660, -1.855e-6, 1.620e-4
0.665, -1.884e-6, 1.619e-4
0.670, -1.905e-6, 1.618e-4
0.675, -1.928e-6, 1.617e-4
0.680, -1.944e-6, 1.617e-4
0.685, -1.961e-6, 1.616e-4
0.690, -1.975e-6, 1.615e-4
0.695, -1.991e-6, 1.614e-4
0.700, -2.008e-6, 1.613e-4
0.705, -2.022e-6, 1.612e-4
0.710, -2.033e-6, 1.611e-4
0.715, -2.048e-6, 1.609e-4
0.720, -2.058e-6, 1.608e-4
0.725, -2.071e-6, 1.607e-4
0.730, -2.080e-6, 1.606e-4
0.735, -2.091e-6, 1.605e-4
0.740, -2.101e-6, 1.604e-4
0.745, -2.112e-6, 1.603e-4
0.750, -2.121e-6, 1.602e-4
0.755, -2.127e-6, 1.601e-4
0.760, -2.138e-6, 1.600e-4
0.765, -2.146e-6, 1.599e-4
0.770, -2.155e-6, 1.598e-4
0.775, -2.165e-6, 1.597e-4
0.780, -2.173e-6, 1.596e-4
0.785, -2.180e-6, 1.595e-4
0.790, -2.191e-6, 1.594e-4
0.795, -2.199e-6, 1.592e-4
0.800, -2.210e-6, 1.591e-4
0.805, -2.219e-6, 1.590e-4
0.810, -2.227e-6, 1.589e-4
0.815, -2.240e-6, 1.588e-4
0.820, -2.247e-6, 1.587e-4
0.825, -2.259e-6, 1.586e-4
0.830, -2.270e-6, 1.585e-4
0.835, -2.281e-6, 1.583e-4
0.840, -2.295e-6, 1.582e-4
0.845, -2.305e-6, 1.581e-4
0.850, -2.318e-6, 1.580e-4
0.855, -2.328e-6, 1.579e-4
0.860, -2.342e-6, 1.578e-4
0.865, -2.354e-6, 1.576e-4
0.870, -2.368e-6, 1.575e-4
0.875, -2.382e-6, 1.574e-4
0.880, -2.402e-6, 1.573e-4
0.885, -2.416e-6, 1.572e-4
0.890, -2.428e-6, 1.570e-4
0.895, -2.441e-6, 1.569e-4
0.900, -2.453e-6, 1.568e-4
0.905, -2.468e-6, 1.567e-4
0.910, -2.483e-6, 1.566e-4
0.915, -2.497e-6, 1.564e-4
0.920, -2.513e-6, 1.563e-4
0.925, -2.523e-6, 1.562e-4
0.930, -2.538e-6, 1.561e-4
0.935, -2.551e-6, 1.559e-4
0.940, -2.562e-6, 1.558e-4
0.945, -2.578e-6, 1.557e-4
0.950, -2.592e-6, 1.555e-4
0.955, -2.605e-6, 1.554e-4
0.960, -2.616e-6, 1.553e-4
0.965, -2.630e-6, 1.551e-4
0.970, -2.644e-6, 1.550e-4
0.975, -2.657e-6, 1.549e-4
0.980, -2.669e-6, 1.547e-4
0.985, -2.684e-6, 1.546e-4
0.990, -2.697e-6, 1.545e-4
0.995, -2.708e-6, 1.543e-4
1.000, -2.718e-6, 1.542e-4
1.005, -2.731e-6, 1.541e-4
1.010, -2.740e-6, 1.539e-4
1.015, -2.750e-6, 1.538e-4
1.020, -2.761e-6, 1.537e-4
1.025, -2.768e-6, 1.535e-4
1.030, -2.781e-6, 1.534e-4
1.035, -2.791e-6, 1.532e-4
1.040, -2.802e-6, 1.531e-4
1.045, -2.810e-6, 1.530e-4
1.050, -2.820e-6, 1.528e-4
1.055, -2.830e-6, 1.527e-4
1.060, -2.838e-6, 1.525e-4
1.065, -2.847e-6, 1.524e-4
1.070, -2.855e-6, 1.523e-4
1.075, -2.868e-6, 1.521e-4
1.080, -2.878e-6, 1.520e-4
1.085, -2.887e-6, 1.518e-4
1.090, -2.897e-6, 1.517e-4
1.095, -2.905e-6, 1.515e-4
1.100, -2.595e-6, 1.514e-4

Segment 3:
1.095, -2.150e-6, 1.513e-4
1.090, -1.856e-6, 1.512e-4
1.085, -1.625e-6, 1.511e-4
1.080, -1.437e-6, 1.510e-4
1.075, -1.282e-6, 1.510e-4
1.070, -1.150e-6, 1.509e-4
1.065, -1.038e-6, 1.509e-4
1.060, -9.401e-7, 1.508e-4
1.055, -8.519e-7, 1.508e-4
1.050, -7.695e-7, 1.507e-4
1.045, -7.016e-7, 1.507e-4
1.040, -6.400e-7, 1.507e-4
1.035, -5.833e-7, 1.506e-4
1.030, -5.326e-7, 1.506e-4
1.025, -4.878e-7, 1.506e-4
1.020, -4.439e-7, 1.506e-4
1.015, -4.031e-7, 1.506e-4
1.010, -3.667e-7, 1.505e-4
1.005, -3.336e-7, 1.505e-4
1.000, -3.004e-7, 1.505e-4
0.995, -2.714e-7, 1.505e-4
0.990, -2.437e-7, 1.505e-4
0.985, -2.166e-7, 1.505e-4
0.980, -1.929e-7, 1.505e-4
0.975, -1.699e-7, 1.505e-4
0.970, -1.486e-7, 1.504e-4
0.965, -1.265e-7, 1.504e-4
0.960, -1.058e-7, 1.504e-4
0.955, -8.798e-8, 1.504e-4
0.950, -7.193e-8, 1.504e-4
0.945, -5.476e-8, 1.504e-4
0.940, -3.821e-8, 1.504e-4
0.935, -2.125e-8, 1.504e-4
0.930, -5.083e-9, 1.504e-4
0.925, 7.473e-9, 1.504e-4
0.920, 2.288e-8, 1.504e-4
0.915, 3.266e-8, 1.504e-4
0.910, 4.732e-8, 1.504e-4
0.905, 6.127e-8, 1.504e-4
0.900, 7.462e-8, 1.504e-4
0.895, 8.679e-8, 1.504e-4
0.890, 9.774e-8, 1.504e-4
0.885, 1.098e-7, 1.504e-4
0.880, 1.215e-7, 1.505e-4
0.875, 1.331e-7, 1.505e-4
0.870, 1.450e-7, 1.505e-4
0.865, 1.535e-7, 1.505e-4
0.860, 1.658e-7, 1.505e-4
0.855, 1.759e-7, 1.505e-4
0.850, 1.880e-7, 1.505e-4
0.845, 1.966e-7, 1.505e-4
0.840, 2.071e-7, 1.505e-4
0.835, 2.183e-7, 1.505e-4
0.830, 2.268e-7, 1.505e-4
0.825, 2.395e-7, 1.506e-4
0.820, 2.467e-7, 1.506e-4
0.815, 2.604e-7, 1.506e-4
0.810, 2.704e-7, 1.506e-4
0.805, 2.812e-7, 1.506e-4
0.800, 2.922e-7, 1.506e-4
0.795, 3.021e-7, 1.506e-4
0.790, 3.132e-7, 1.507e-4
0.785, 3.245e-7, 1.507e-4
0.780, 3.378e-7, 1.507e-4
0.775, 3.464e-7, 1.507e-4
0.770, 3.602e-7, 1.507e-4
0.765, 3.715e-7, 1.507e-4
0.760, 3.859e-7, 1.508e-4
0.755, 3.951e-7, 1.508e-4
0.750, 4.091e-7, 1.508e-4
0.745, 4.205e-7, 1.508e-4
0.740, 4.351e-7, 1.508e-4
0.735, 4.466e-7, 1.509e-4
0.730, 4.624e-7, 1.509e-4
0.725, 4.778e-7, 1.509e-4
0.720, 4.920e-7, 1.509e-4
0.715, 5.087e-7, 1.510e-4
0.710, 5.233e-7, 1.510e-4
0.705, 5.395e-7, 1.510e-4
0.700, 5.561e-7, 1.510e-4
0.695, 5.755e-7, 1.511e-4
0.690, 5.908e-7, 1.511e-4
0.685, 6.099e-7, 1.511e-4
0.680, 6.302e-7, 1.512e-4
0.675, 6.507e-7, 1.512e-4
0.670, 6.734e-7, 1.512e-4
0.665, 6.951e-7, 1.513e-4
0.660, 7.209e-7, 1.513e-4
0.655, 7.518e-7, 1.513e-4
0.650, 7.766e-7, 1.514e-4
0.645, 8.030e-7, 1.514e-4
0.640, 8.297e-7, 1.515e-4
0.635, 8.587e-7, 1.515e-4
0.630, 8.882e-7, 1.515e-4
0.625, 9.222e-7, 1.516e-4
0.620, 9.529e-7, 1.516e-4
0.615, 9.852e-7, 1.517e-4
0.610, 1.024e-6, 1.517e-4
0.605, 1.065e-6, 1.518e-4
0.600, 1.108e-6, 1.518e-4
0.595, 1.153e-6, 1.519e-4
0.590, 1.199e-6, 1.520e-4
0.585, 1.249e-6, 1.520e-4
0.580, 1.303e-6, 1.521e-4
0.575, 1.362e-6, 1.522e-4
0.570, 1.422e-6, 1.522e-4
0.565, 1.490e-6, 1.523e-4
0.560, 1.563e-6, 1.524e-4
0.555, 1.640e-6, 1.525e-4
0.550, 1.723e-6, 1.526e-4
0.545, 1.815e-6, 1.526e-4
0.540, 1.913e-6, 1.527e-4
0.535, 2.022e-6, 1.528e-4
0.530, 2.140e-6, 1.529e-4
0.525, 2.278e-6, 1.531e-4
0.520, 2.430e-6, 1.532e-4
0.515, 2.598e-6, 1.533e-4
0.510, 2.787e-6, 1.535e-4
0.505, 3.002e-6, 1.536e-4
0.500, 3.249e-6, 1.538e-4
0.495, 3.527e-6, 1.539e-4
0.490, 3.847e-6, 1.541e-4
0.485, 4.218e-6, 1.543e-4
0.480, 4.639e-6, 1.546e-4
0.475, 5.122e-6, 1.548e-4
0.470, 5.676e-6, 1.551e-4
0.465, 6.298e-6, 1.554e-4
0.460, 6.993e-6, 1.558e-4
0.455, 7.758e-6, 1.562e-4
0.450, 8.581e-6, 1.566e-4
0.445, 9.455e-6, 1.571e-4
0.440, 1.037e-5, 1.576e-4
0.435, 1.129e-5, 1.582e-4
0.430, 1.223e-5, 1.588e-4
0.425, 1.315e-5, 1.594e-4
0.420, 1.401e-5, 1.601e-4
0.415, 1.481e-5, 1.609e-4
0.410, 1.554e-5, 1.616e-4
0.405, 1.617e-5, 1.624e-4
0.400, 1.670e-5, 1.633e-4
0.395, 1.712e-5, 1.641e-4
0.390, 1.743e-5, 1.650e-4
0.385, 1.764e-5, 1.659e-4
0.380, 1.776e-5, 1.668e-4
0.375, 1.780e-5, 1.677e-4
0.370, 1.777e-5, 1.686e-4
0.365, 1.768e-5, 1.694e-4
0.360, 1.755e-5, 1.703e-4
0.355, 1.739e-5, 1.712e-4
0.350, 1.721e-5, 1.721e-4
0.345, 1.700e-5, 1.729e-4
0.340, 1.680e-5, 1.737e-4
0.335, 1.660e-5, 1.746e-4
0.330, 1.641e-5, 1.754e-4
0.325, 1.624e-5, 1.762e-4
0.320, 1.606e-5, 1.770e-4
0.315, 1.587e-5, 1.778e-4
0.310, 1.571e-5, 1.786e-4
0.305, 1.556e-5, 1.794e-4
0.300, 1.545e-5, 1.801e-4
0.295, 1.530e-5, 1.809e-4
0.290, 1.515e-5, 1.817e-4
0.285, 1.501e-5, 1.824e-4
0.280, 1.490e-5, 1.832e-4
0.275, 1.481e-5, 1.839e-4
0.270, 1.469e-5, 1.846e-4
0.265, 1.458e-5, 1.854e-4
0.260, 1.447e-5, 1.861e-4
0.255, 1.437e-5, 1.868e-4
0.250, 1.425e-5, 1.875e-4
0.245, 1.414e-5, 1.882e-4
0.240, 1.405e-5, 1.889e-4
0.235, 1.397e-5, 1.896e-4
0.230, 1.386e-5, 1.903e-4
0.225, 1.373e-5, 1.910e-4
0.220, 1.361e-5, 1.917e-4
0.215, 1.355e-5, 1.924e-4
0.210, 1.348e-5, 1.930e-4
0.205, 1.334e-5, 1.937e-4
0.200, 1.321e-5, 1.944e-4
0.195, 1.313e-5, 1.950e-4
0.190, 1.307e-5, 1.957e-4
0.185, 1.299e-5, 1.963e-4
0.180, 1.290e-5, 1.970e-4
0.175, 1.282e-5, 1.976e-4
0.170, 1.275e-5, 1.982e-4
0.165, 1.267e-5, 1.989e-4
0.160, 1.260e-5, 1.995e-4
0.155, 1.252e-5, 2.001e-4
0.150, 1.245e-5, 2.008e-4
0.145, 1.238e-5, 2.014e-4
0.140, 1.231e-5, 2.020e-4
0.135, 1.223e-5, 2.026e-4
0.130, 1.217e-5, 2.032e-4
0.125, 1.213e-5, 2.038e-4
0.120, 1.210e-5, 2.044e-4
0.115, 1.204e-5, 2.050e-4
0.110, 1.199e-5, 2.056e-4
0.105, 1.196e-5, 2.062e-4
0.100, 1.191e-5, 2.068e-4
0.095, 1.184e-5, 2.074e-4
0.090, 1.181e-5, 2.080e-4
0.085, 1.179e-5, 2.086e-4
0.080, 1.177e-5, 2.092e-4
0.075, 1.172e-5, 2.098e-4
0.070, 1.168e-5, 2.103e-4
0.065, 1.169e-5, 2.109e-4
0.060, 1.170e-5, 2.115e-4
0.055, 1.169e-5, 2.121e-4
0.050, 1.169e-5, 2.127e-4
0.045, 1.170e-5, 2.133e-4
0.040, 1.168e-5, 2.139e-4
0.035, 1.164e-5, 2.144e-4
0.030, 1.162e-5, 2.150e-4
0.025, 1.159e-5, 2.156e-4
0.020, 1.157e-5, 2.162e-4
0.015, 1.157e-5, 2.168e-4
0.010, 1.156e-5, 2.173e-4
0.005, 1.153e-5, 2.179e-4
0.000, 1.152e-5, 2.185e-4
-0.005, 1.154e-5, 2.191e-4
-0.010, 1.155e-5, 2.196e-4
-0.015, 1.156e-5, 2.202e-4
-0.020, 1.157e-5, 2.208e-4
-0.025, 1.159e-5, 2.214e-4
-0.030, 1.162e-5, 2.220e-4
-0.035, 1.165e-5, 2.225e-4
-0.040, 1.167e-5, 2.231e-4
-0.045, 1.171e-5, 2.237e-4
-0.050, 1.181e-5, 2.243e-4
-0.055, 1.192e-5, 2.249e-4
-0.060, 1.201e-5, 2.255e-4
-0.065, 1.206e-5, 2.261e-4
-0.070, 1.210e-5, 2.267e-4
-0.075, 1.214e-5, 2.273e-4
-0.080, 1.222e-5, 2.279e-4
-0.085, 1.228e-5, 2.285e-4
-0.090, 1.229e-5, 2.292e-4
-0.095, 1.229e-5, 2.298e-4
-0.100, 1.232e-5, 2.304e-4
-0.105, 1.239e-5, 2.310e-4
-0.110, 1.242e-5, 2.316e-4
-0.115, 1.238e-5, 2.322e-4
-0.120, 1.239e-5, 2.329e-4
-0.125, 1.240e-5, 2.335e-4
-0.130, 1.241e-5, 2.341e-4
-0.135, 1.240e-5, 2.347e-4
-0.140, 1.242e-5, 2.353e-4
-0.145, 1.245e-5, 2.360e-4
-0.150, 1.249e-5, 2.366e-4
-0.155, 1.252e-5, 2.372e-4
-0.160, 1.254e-5, 2.378e-4
-0.165, 1.259e-5, 2.385e-4
-0.170, 1.264e-5, 2.391e-4
-0.175, 1.270e-5, 2.397e-4
-0.180, 1.281e-5, 2.404e-4
-0.185, 1.289e-5, 2.410e-4
-0.190, 1.294e-5, 2.417e-4
-0.195, 1.296e-5, 2.423e-4
-0.200, 1.304e-5, 2.430e-4
-0.205, 1.312e-5, 2.436e-4
-0.210, 1.320e-5, 2.443e-4
-0.215, 1.327e-5, 2.450e-4
-0.220, 1.334e-5, 2.456e-4
-0.225, 1.340e-5, 2.463e-4
-0.230, 1.343e-5, 2.470e-4
-0.235, 1.348e-5, 2.476e-4
-0.240, 1.348e-5, 2.483e-4
-0.245, 1.349e-5, 2.490e-4
-0.250, 1.350e-5, 2.497e-4
-0.255, 1.352e-5, 2.503e-4
-0.260, 1.349e-5, 2.510e-4
-0.265, 1.345e-5, 2.517e-4
-0.270, 1.342e-5, 2.524e-4
-0.275, 1.338e-5, 2.530e-4
-0.280, 1.334e-5, 2.537e-4
-0.285, 1.330e-5, 2.544e-4
-0.290, 1.118e-5, 2.549e-4

Segment 4:
-0.285, 9.899e-6, 2.554e-4
-0.280, 9.546e-6, 2.559e-4
-0.275, 9.311e-6, 2.563e-4
-0.270, 9.120e-6, 2.568e-4
-0.265, 8.960e-6, 2.573e-4
-0.260, 8.839e-6, 2.577e-4
-0.255, 8.728e-6, 2.581e-4
-0.250, 8.624e-6, 2.586e-4
-0.245, 8.517e-6, 2.590e-4
-0.240, 8.439e-6, 2.594e-4
-0.235, 8.391e-6, 2.598e-4
-0.230, 8.358e-6, 2.602e-4
-0.225, 8.349e-6, 2.607e-4
-0.220, 8.340e-6, 2.611e-4
-0.215, 8.326e-6, 2.615e-4
-0.210, 8.327e-6, 2.619e-4
-0.205, 8.382e-6, 2.623e-4
-0.200, 8.367e-6, 2.628e-4
-0.195, 8.365e-6, 2.632e-4
-0.190, 8.368e-6, 2.636e-4
-0.185, 8.399e-6, 2.640e-4
-0.180, 8.420e-6, 2.644e-4
-0.175, 8.444e-6, 2.649e-4
-0.170, 8.449e-6, 2.653e-4
-0.165, 8.421e-6, 2.657e-4
-0.160, 8.439e-6, 2.661e-4
-0.155, 8.429e-6, 2.665e-4
-0.150, 8.417e-6, 2.670e-4
-0.145, 8.392e-6, 2.674e-4
-0.140, 8.390e-6, 2.678e-4
-0.135, 8.387e-6, 2.682e-4
-0.130, 8.374e-6, 2.686e-4
-0.125, 8.337e-6, 2.691e-4
-0.120, 8.301e-6, 2.695e-4
-0.115, 8.307e-6, 2.699e-4
-0.110, 8.325e-6, 2.703e-4
-0.105, 8.290e-6, 2.707e-4
-0.100, 8.268e-6, 2.711e-4
-0.095, 8.236e-6, 2.715e-4
-0.090, 8.220e-6, 2.720e-4
-0.085, 8.196e-6, 2.724e-4
-0.080, 8.186e-6, 2.728e-4
-0.075, 8.161e-6, 2.732e-4
-0.070, 8.121e-6, 2.736e-4
-0.065, 8.135e-6, 2.740e-4
-0.060, 8.195e-6, 2.744e-4
-0.055, 8.266e-6, 2.748e-4
-0.050, 8.374e-6, 2.752e-4
-0.045, 8.497e-6, 2.757e-4
-0.040, 8.646e-6, 2.761e-4
-0.035, 8.773e-6, 2.765e-4
-0.030, 8.887e-6, 2.770e-4
-0.025, 8.966e-6, 2.774e-4
-0.020, 9.029e-6, 2.779e-4
-0.015, 9.099e-6, 2.783e-4
-0.010, 9.156e-6, 2.788e-4
-0.005, 9.218e-6, 2.792e-4
-0.000, 9.285e-6, 2.797e-4
0.005, 9.344e-6, 2.802e-4
0.010, 9.348e-6, 2.806e-4
0.015, 9.365e-6, 2.811e-4
0.020, 9.404e-6, 2.816e-4
0.025, 9.451e-6, 2.821e-4
0.030, 9.472e-6, 2.825e-4
0.035, 9.448e-6, 2.830e-4
0.040, 9.395e-6, 2.835e-4
0.045, 9.414e-6, 2.839e-4
0.050, 9.447e-6, 2.844e-4
0.055, 9.403e-6, 2.849e-4
0.060, 9.355e-6, 2.854e-4
0.065, 9.333e-6, 2.858e-4
0.070, 9.318e-6, 2.863e-4
0.075, 9.287e-6, 2.867e-4
0.080, 9.245e-6, 2.872e-4
0.085, 9.187e-6, 2.877e-4
0.090, 9.136e-6, 2.881e-4
0.095, 9.096e-6, 2.886e-4
0.100, 9.051e-6, 2.890e-4
0.105, 8.995e-6, 2.895e-4
0.110, 8.957e-6, 2.899e-4
0.115, 8.901e-6, 2.904e-4
0.120, 8.821e-6, 2.908e-4
0.125, 8.760e-6, 2.913e-4
0.130, 8.714e-6, 2.917e-4
0.135, 8.667e-6, 2.921e-4
0.140, 8.614e-6, 2.926e-4
0.145, 8.560e-6, 2.930e-4
0.150, 8.505e-6, 2.934e-4
0.155, 8.463e-6, 2.938e-4
0.160, 8.424e-6, 2.943e-4
0.165, 8.379e-6, 2.947e-4
0.170, 8.350e-6, 2.951e-4
0.175, 8.333e-6, 2.955e-4
0.180, 8.307e-6, 2.959e-4
0.185, 8.268e-6, 2.963e-4
0.190, 8.257e-6, 2.967e-4
0.195, 8.257e-6, 2.972e-4
0.200, 8.252e-6, 2.976e-4
0.205, 8.263e-6, 2.980e-4
0.210, 8.277e-6, 2.984e-4
0.215, 8.280e-6, 2.988e-4
0.220, 8.274e-6, 2.992e-4
0.225, 8.264e-6, 2.996e-4
0.230, 8.258e-6, 3.001e-4
0.235, 8.295e-6, 3.005e-4
0.240, 8.312e-6, 3.009e-4
0.245, 8.314e-6, 3.013e-4
0.250, 8.330e-6, 3.017e-4
0.255, 8.324e-6, 3.021e-4
0.260, 8.321e-6, 3.026e-4
0.265, 8.337e-6, 3.030e-4
0.270, 8.333e-6, 3.034e-4
0.275, 8.317e-6, 3.038e-4
0.280, 8.302e-6, 3.042e-4
0.285, 8.299e-6, 3.046e-4
0.290, 8.282e-6, 3.050e-4
0.295, 8.271e-6, 3.055e-4
0.300, 8.254e-6, 3.059e-4
0.305, 8.225e-6, 3.063e-4
0.310, 8.194e-6, 3.067e-4
0.315, 8.161e-6, 3.071e-4
0.320, 8.116e-6, 3.075e-4
0.325, 8.076e-6, 3.079e-4
0.330, 8.043e-6, 3.083e-4
0.335, 8.003e-6, 3.087e-4
0.340, 7.956e-6, 3.091e-4
0.345, 7.893e-6, 3.095e-4
0.350, 7.828e-6, 3.099e-4
0.355, 7.759e-6, 3.103e-4
0.360, 7.681e-6, 3.107e-4
0.365, 7.587e-6, 3.110e-4
0.370, 7.470e-6, 3.114e-4
0.375, 7.354e-6, 3.118e-4
0.380, 7.247e-6, 3.121e-4
0.385, 7.145e-6, 3.125e-4
0.390, 7.019e-6, 3.129e-4
0.395, 6.866e-6, 3.132e-4
0.400, 6.712e-6, 3.135e-4
0.405, 6.575e-6, 3.139e-4
0.410, 6.431e-6, 3.142e-4
0.415, 6.262e-6, 3.145e-4
0.420, 6.074e-6, 3.148e-4
0.425, 5.897e-6, 3.151e-4
0.430, 5.712e-6, 3.154e-4
0.435, 5.521e-6, 3.157e-4
0.440, 5.315e-6, 3.159e-4
0.445, 5.114e-6, 3.162e-4
0.450, 4.905e-6, 3.164e-4
0.455, 4.699e-6, 3.167e-4
0.460, 4.480e-6, 3.169e-4
0.465, 4.254e-6, 3.171e-4
0.470, 4.020e-6, 3.173e-4
0.475, 3.772e-6, 3.175e-4
0.480, 3.525e-6, 3.177e-4
0.485, 3.270e-6, 3.178e-4
0.490, 3.000e-6, 3.180e-4
0.495, 2.731e-6, 3.181e-4
0.500, 2.460e-6, 3.182e-4
0.505, 2.175e-6, 3.183e-4
0.510, 1.901e-6, 3.184e-4
0.515, 1.628e-6, 3.185e-4
0.520, 1.360e-6, 3.186e-4
0.525, 1.101e-6, 3.186e-4
0.530, 8.498e-7, 3.187e-4
0.535, 6.056e-7, 3.187e-4
0.540, 3.852e-7, 3.187e-4
0.545, 1.735e-7, 3.187e-4
0.550, -2.817e-8, 3.187e-4
0.555, -2.107e-7, 3.187e-4
0.560, -3.836e-7, 3.187e-4
0.565, -5.453e-7, 3.187e-4
0.570, -6.901e-7, 3.187e-4
0.575, -8.312e-7, 3.186e-4
0.580, -9.610e-7, 3.186e-4
0.585, -1.075e-6, 3.185e-4
0.590, -1.181e-6, 3.185e-4
0.595, -1.277e-6, 3.184e-4
0.600, -1.365e-6, 3.183e-4
0.605, -1.446e-6, 3.182e-4
0.610, -1.515e-6, 3.182e-4
0.615, -1.570e-6, 3.181e-4
0.620, -1.634e-6, 3.180e-4
0.625, -1.686e-6, 3.179e-4
0.630, -1.733e-6, 3.178e-4
0.635, -1.774e-6, 3.178e-4
0.640, -1.812e-6, 3.177e-4
0.645, -1.844e-6, 3.176e-4
0.650, -1.874e-6, 3.175e-4
0.655, -1.902e-6, 3.174e-4
0.660, -1.925e-6, 3.173e-4
0.665, -1.949e-6, 3.172e-4
0.670, -1.966e-6, 3.171e-4
0.675, -1.982e-6, 3.170e-4
0.680, -1.999e-6, 3.169e-4
0.685, -2.012e-6, 3.168e-4
0.690, -2.025e-6, 3.167e-4
0.695, -2.035e-6, 3.166e-4
0.700, -2.048e-6, 3.165e-4
0.705, -2.057e-6, 3.164e-4
0.710, -2.066e-6, 3.163e-4
0.715, -2.078e-6, 3.162e-4
0.720, -2.089e-6, 3.161e-4
0.725, -2.097e-6, 3.160e-4
0.730, -2.104e-6, 3.159e-4
0.735, -2.111e-6, 3.158e-4
0.740, -2.117e-6, 3.156e-4
0.745, -2.123e-6, 3.155e-4
0.750, -2.127e-6, 3.154e-4
0.755, -2.132e-6, 3.153e-4
0.760, -2.139e-6, 3.152e-4
0.765, -2.146e-6, 3.151e-4
0.770, -2.151e-6, 3.150e-4
0.775, -2.156e-6, 3.149e-4
0.780, -2.162e-6, 3.148e-4
0.785, -2.169e-6, 3.147e-4
0.790, -2.174e-6, 3.146e-4
0.795, -2.180e-6, 3.145e-4
0.800, -2.188e-6, 3.144e-4
0.805, -2.196e-6, 3.142e-4
0.810, -2.202e-6, 3.141e-4
0.815, -2.211e-6, 3.140e-4
0.820, -2.218e-6, 3.139e-4
0.825, -2.225e-6, 3.138e-4
0.830, -2.235e-6, 3.137e-4
0.835, -2.246e-6, 3.136e-4
0.840, -2.254e-6, 3.135e-4
0.845, -2.264e-6, 3.134e-4
0.850, -2.273e-6, 3.132e-4
0.855, -2.285e-6, 3.131e-4
0.860, -2.296e-6, 3.130e-4
0.865, -2.308e-6, 3.129e-4
0.870, -2.320e-6, 3.128e-4
0.875, -2.329e-6, 3.127e-4
0.880, -2.342e-6, 3.125e-4
0.885, -2.353e-6, 3.124e-4
0.890, -2.364e-6, 3.123e-4
0.895, -2.375e-6, 3.122e-4
0.900, -2.394e-6, 3.121e-4
0.905, -2.410e-6, 3.119e-4
0.910, -2.420e-6, 3.118e-4
0.915, -2.433e-6, 3.117e-4
0.920, -2.447e-6, 3.116e-4
0.925, -2.457e-6, 3.115e-4
0.930, -2.469e-6, 3.113e-4
0.935, -2.485e-6, 3.112e-4
0.940, -2.497e-6, 3.111e-4
0.945, -2.509e-6, 3.110e-4
0.950, -2.517e-6, 3.108e-4
0.955, -2.530e-6, 3.107e-4
0.960, -2.543e-6, 3.106e-4
0.965, -2.552e-6, 3.105e-4
0.970, -2.563e-6, 3.103e-4
0.975, -2.578e-6, 3.102e-4
0.980, -2.589e-6, 3.101e-4
0.985, -2.600e-6, 3.099e-4
0.990, -2.611e-6, 3.098e-4
0.995, -2.620e-6, 3.097e-4
1.000, -2.633e-6, 3.095e-4
1.005, -2.641e-6, 3.094e-4
1.010, -2.650e-6, 3.093e-4
1.015, -2.660e-6, 3.091e-4
1.020, -2.671e-6, 3.090e-4
1.025, -2.678e-6, 3.089e-4
1.030, -2.687e-6, 3.087e-4
1.035, -2.698e-6, 3.086e-4
1.040, -2.707e-6, 3.085e-4
1.045, -2.712e-6, 3.083e-4
1.050, -2.722e-6, 3.082e-4
1.055, -2.732e-6, 3.081e-4
1.060, -2.739e-6, 3.079e-4
1.065, -2.746e-6, 3.078e-4
1.070, -2.754e-6, 3.077e-4
1.075, -2.765e-6, 3.075e-4
1.080, -2.776e-6, 3.074e-4
1.085, -2.783e-6, 3.072e-4
1.090, -2.793e-6, 3.071e-4
1.095, -2.803e-6, 3.070e-4
1.100, -2.488e-6, 3.068e-4

Segment 5:
1.095, -2.056e-6, 3.067e-4
1.090, -1.772e-6, 3.066e-4
1.085, -1.551e-6, 3.066e-4
1.080, -1.374e-6, 3.065e-4
1.075, -1.224e-6, 3.064e-4
1.070, -1.099e-6, 3.064e-4
1.065, -9.909e-7, 3.063e-4
1.060, -8.981e-7, 3.063e-4
1.055, -8.106e-7, 3.062e-4
1.050, -7.362e-7, 3.062e-4
1.045, -6.687e-7, 3.062e-4
1.040, -6.094e-7, 3.061e-4
1.035, -5.574e-7, 3.061e-4
1.030, -5.068e-7, 3.061e-4
1.025, -4.651e-7, 3.061e-4
1.020, -4.216e-7, 3.060e-4
1.015, -3.826e-7, 3.060e-4
1.010, -3.494e-7, 3.060e-4
1.005, -3.142e-7, 3.060e-4
1.000, -2.840e-7, 3.060e-4
0.995, -2.561e-7, 3.060e-4
0.990, -2.280e-7, 3.060e-4
0.985, -2.031e-7, 3.059e-4
0.980, -1.790e-7, 3.059e-4
0.975, -1.575e-7, 3.059e-4
0.970, -1.356e-7, 3.059e-4
0.965, -1.143e-7, 3.059e-4
0.960, -9.593e-8, 3.059e-4
0.955, -7.642e-8, 3.059e-4
0.950, -6.210e-8, 3.059e-4
0.945, -4.402e-8, 3.059e-4
0.940, -2.621e-8, 3.059e-4
0.935, -1.179e-8, 3.059e-4
0.930, 1.911e-9, 3.059e-4
0.925, 1.822e-8, 3.059e-4
0.920, 2.901e-8, 3.059e-4
0.915, 4.334e-8, 3.059e-4
0.910, 5.595e-8, 3.059e-4
0.905, 7.088e-8, 3.059e-4
0.900, 8.253e-8, 3.059e-4
0.895, 9.501e-8, 3.059e-4
0.890, 1.047e-7, 3.059e-4
0.885, 1.189e-7, 3.059e-4
0.880, 1.280e-7, 3.059e-4
0.875, 1.419e-7, 3.059e-4
0.870, 1.499e-7, 3.060e-4
0.865, 1.619e-7, 3.060e-4
0.860, 1.721e-7, 3.060e-4
0.855, 1.835e-7, 3.060e-4
0.850, 1.938e-7, 3.060e-4
0.845, 2.024e-7, 3.060e-4
0.840, 2.144e-7, 3.060e-4
0.835, 2.237e-7, 3.060e-4
0.830, 2.350e-7, 3.060e-4
0.825, 2.450e-7, 3.060e-4
0.820, 2.535e-7, 3.061e-4
0.815, 2.667e-7, 3.061e-4
0.810, 2.762e-7, 3.061e-4
0.805, 2.882e-7, 3.061e-4
0.800, 2.962e-7, 3.061e-4
0.795, 3.092e-7, 3.061e-4
0.790, 3.186e-7, 3.061e-4
0.785, 3.316e-7, 3.062e-4
0.780, 3.411e-7, 3.062e-4
0.775, 3.531e-7, 3.062e-4
0.770, 3.660e-7, 3.062e-4
0.765, 3.777e-7, 3.062e-4
0.760, 3.902e-7, 3.063e-4
0.755, 4.017e-7, 3.063e-4
0.750, 4.140e-7, 3.063e-4
0.745, 4.270e-7, 3.063e-4
0.740, 4.397e-7, 3.063e-4
0.735, 4.541e-7, 3.064e-4
0.730, 4.673e-7, 3.064e-4
0.725, 4.836e-7, 3.064e-4
0.720, 4.979e-7, 3.064e-4
0.715, 5.143e-7, 3.065e-4
0.710, 5.299e-7, 3.065e-4
0.705, 5.447e-7, 3.065e-4
0.700, 5.622e-7, 3.065e-4
0.695, 5.811e-7, 3.066e-4
0.690, 5.983e-7, 3.066e-4
0.685, 6.155e-7, 3.066e-4
0.680, 6.345e-7, 3.067e-4
0.675, 6.575e-7, 3.067e-4
0.670, 6.796e-7, 3.067e-4
0.665, 7.032e-7, 3.068e-4
0.660, 7.283e-7, 3.068e-4
0.655, 7.577e-7, 3.068e-4
0.650, 7.822e-7, 3.069e-4
0.645, 8.111e-7, 3.069e-4
0.640, 8.361e-7, 3.070e-4
0.635, 8.664e-7, 3.070e-4
0.630, 8.961e-7, 3.070e-4
0.625, 9.290e-7, 3.071e-4
0.620, 9.625e-7, 3.071e-4
0.615, 9.941e-7, 3.072e-4
0.610, 1.033e-6, 3.072e-4
0.605, 1.075e-6, 3.073e-4
0.600, 1.117e-6, 3.074e-4
0.595, 1.163e-6, 3.074e-4
0.590, 1.210e-6, 3.075e-4
0.585, 1.261e-6, 3.075e-4
0.580, 1.317e-6, 3.076e-4
0.575, 1.376e-6, 3.077e-4
0.570, 1.438e-6, 3.077e-4
0.565, 1.509e-6, 3.078e-4
0.560, 1.582e-6, 3.079e-4
0.555, 1.660e-6, 3.080e-4
0.550, 1.745e-6, 3.081e-4
0.545, 1.839e-6, 3.082e-4
0.540, 1.940e-6, 3.083e-4
0.535, 2.055e-6, 3.084e-4
0.530, 2.177e-6, 3.085e-4
0.525, 2.323e-6, 3.086e-4
0.520, 2.480e-6, 3.087e-4
0.515, 2.656e-6, 3.088e-4
0.510, 2.855e-6, 3.090e-4
0.505, 3.084e-6, 3.091e-4
0.500, 3.343e-6, 3.093e-4
0.495, 3.639e-6, 3.095e-4
0.490, 3.988e-6, 3.097e-4
0.485, 4.381e-6, 3.099e-4
0.480, 4.832e-6, 3.101e-4
0.475, 5.354e-6, 3.104e-4
0.470, 5.946e-6, 3.107e-4
0.465, 6.615e-6, 3.110e-4
0.460, 7.366e-6, 3.114e-4
0.455, 8.178e-6, 3.118e-4
0.450, 9.059e-6, 3.123e-4
0.445, 9.992e-6, 3.128e-4
0.440, 1.095e-5, 3.133e-4
0.435, 1.193e-5, 3.139e-4
0.430, 1.291e-5, 3.146e-4
0.425, 1.385e-5, 3.153e-4
0.420, 1.473e-5, 3.160e-4
0.415, 1.554e-5, 3.168e-4
0.410, 1.626e-5, 3.176e-4
0.405, 1.687e-5, 3.184e-4
0.400, 1.736e-5, 3.193e-4
0.395, 1.774e-5, 3.202e-4
0.390, 1.800e-5, 3.211e-4
0.385, 1.815e-5, 3.220e-4
0.380, 1.820e-5, 3.229e-4
0.375, 1.816e-5, 3.238e-4
0.370, 1.805e-5, 3.247e-4
0.365, 1.788e-5, 3.256e-4
0.360, 1.767e-5, 3.265e-4
0.355, 1.743e-5, 3.274e-4
0.350, 1.717e-5, 3.282e-4
0.345, 1.689e-5, 3.291e-4
0.340, 1.660e-5, 3.299e-4
0.335, 1.632e-5, 3.307e-4
0.330, 1.604e-5, 3.315e-4
0.325, 1.578e-5, 3.323e-4
0.320, 1.552e-5, 3.331e-4
0.315, 1.527e-5, 3.338e-4
0.310, 1.502e-5, 3.346e-4
0.305, 1.479e-5, 3.353e-4
0.300, 1.458e-5, 3.361e-4
0.295, 1.437e-5, 3.368e-4
0.290, 1.417e-5, 3.375e-4
0.285, 1.398e-5, 3.382e-4
0.280, 1.382e-5, 3.389e-4
0.275, 1.365e-5, 3.396e-4
0.270, 1.349e-5, 3.402e-4
0.265, 1.334e-5, 3.409e-4
0.260, 1.319e-5, 3.416e-4
0.255, 1.305e-5, 3.422e-4
0.250, 1.293e-5, 3.429e-4
0.245, 1.282e-5, 3.435e-4
0.240, 1.271e-5, 3.441e-4
0.235, 1.260e-5, 3.448e-4
0.230, 1.251e-5, 3.454e-4
0.225, 1.241e-5, 3.460e-4
0.220, 1.232e-5, 3.466e-4
0.215, 1.224e-5, 3.472e-4
0.210, 1.215e-5, 3.478e-4
0.205, 1.205e-5, 3.484e-4
0.200, 1.197e-5, 3.490e-4
0.195, 1.190e-5, 3.496e-4
0.190, 1.181e-5, 3.502e-4
0.185, 1.174e-5, 3.508e-4
0.180, 1.168e-5, 3.514e-4
0.175, 1.159e-5, 3.520e-4
0.170, 1.152e-5, 3.526e-4
0.165, 1.147e-5, 3.531e-4
0.160, 1.140e-5, 3.537e-4
0.155, 1.132e-5, 3.543e-4
0.150, 1.124e-5, 3.548e-4
0.145, 1.117e-5, 3.554e-4
0.140, 1.112e-5, 3.559e-4
0.135, 1.105e-5, 3.565e-4
0.130, 1.096e-5, 3.570e-4
0.125, 1.089e-5, 3.576e-4
0.120, 1.083e-5, 3.581e-4
0.115, 1.076e-5, 3.587e-4
0.110, 1.068e-5, 3.592e-4
0.105, 1.059e-5, 3.597e-4
0.100, 1.050e-5, 3.603e-4
0.095, 1.043e-5, 3.608e-4
0.090, 1.033e-5, 3.613e-4
0.085, 1.023e-5, 3.618e-4
0.080, 1.014e-5, 3.623e-4
0.075, 1.006e-5, 3.628e-4
0.070, 9.979e-6, 3.633e-4
0.065, 9.887e-6, 3.638e-4
0.060, 9.798e-6, 3.643e-4
0.055, 9.731e-6, 3.648e-4
0.050, 9.668e-6, 3.653e-4
0.045, 9.600e-6, 3.657e-4
0.040, 9.535e-6, 3.662e-4
0.035, 9.460e-6, 3.667e-4
0.030, 9.396e-6, 3.672e-4
0.025, 9.349e-6, 3.676e-4
0.020, 9.291e-6, 3.681e-4
0.015, 9.231e-6, 3.686e-4
0.010, 9.184e-6, 3.690e-4
0.005, 9.151e-6, 3.695e-4
0.000, 9.125e-6, 3.699e-4
-0.005, 9.091e-6, 3.704e-4
-0.010, 9.055e-6, 3.708e-4
-0.015, 9.024e-6, 3.713e-4
-0.020, 9.010e-6, 3.717e-4
-0.025, 9.009e-6, 3.722e-4
-0.030, 9.023e-6, 3.726e-4
-0.035, 9.040e-6, 3.731e-4
-0.040, 9.073e-6, 3.736e-4
-0.045, 9.116e-6, 3.740e-4
-0.050, 9.185e-6, 3.745e-4
-0.055, 9.231e-6, 3.749e-4
-0.060, 9.312e-6, 3.754e-4
-0.065, 9.386e-6, 3.759e-4
-0.070, 9.451e-6, 3.763e-4
-0.075, 9.508e-6, 3.768e-4
-0.080, 9.566e-6, 3.773e-4
-0.085, 9.604e-6, 3.778e-4
-0.090, 9.621e-6, 3.782e-4
-0.095, 9.624e-6, 3.787e-4
-0.100, 9.646e-6, 3.792e-4
-0.105, 9.660e-6, 3.797e-4
-0.110, 9.671e-6, 3.802e-4
-0.115, 9.661e-6, 3.807e-4
-0.120, 9.612e-6, 3.811e-4
-0.125, 9.580e-6, 3.816e-4
-0.130, 9.564e-6, 3.821e-4
-0.135, 9.541e-6, 3.826e-4
-0.140, 9.517e-6, 3.831e-4
-0.145, 9.494e-6, 3.835e-4
-0.150, 9.485e-6, 3.840e-4
-0.155, 9.503e-6, 3.845e-4
-0.160, 9.538e-6, 3.850e-4
-0.165, 9.592e-6, 3.854e-4
-0.170, 9.648e-6, 3.859e-4
-0.175, 9.710e-6, 3.864e-4
-0.180, 9.775e-6, 3.869e-4
-0.185, 9.860e-6, 3.874e-4
-0.190, 9.946e-6, 3.879e-4
-0.195, 1.004e-5, 3.884e-4
-0.200, 1.015e-5, 3.889e-4
-0.205, 1.022e-5, 3.894e-4
-0.210, 1.035e-5, 3.899e-4
-0.215, 1.047e-5, 3.904e-4
-0.220, 1.059e-5, 3.910e-4
-0.225, 1.074e-5, 3.915e-4
-0.230, 1.087e-5, 3.921e-4
-0.235, 1.097e-5, 3.926e-4
-0.240, 1.104e-5, 3.932e-4
-0.245, 1.116e-5, 3.937e-4
-0.250, 1.126e-5, 3.943e-4
-0.255, 1.134e-5, 3.948e-4
-0.260, 1.137e-5, 3.954e-4
-0.265, 1.144e-5, 3.960e-4
-0.270, 1.154e-5, 3.966e-4
-0.275, 1.163e-5, 3.971e-4
-0.280, 1.168e-5, 3.977e-4
-0.285, 1.176e-5, 3.983e-4
-0.290, 9.787e-6, 3.988e-4

Segment 6:
-0.285, 8.608e-6, 3.992e-4
-0.280, 8.362e-6, 3.996e-4
-0.275, 8.229e-6, 4.001e-4
-0.270, 8.163e-6, 4.005e-4
-0.265, 8.156e-6, 4.009e-4
-0.260, 8.152e-6, 4.013e-4
-0.255, 8.113e-6, 4.017e-4
-0.250, 8.123e-6, 4.021e-4
-0.245, 8.140e-6, 4.025e-4
-0.240, 8.194e-6, 4.029e-4
-0.235, 8.272e-6, 4.033e-4
-0.230, 8.350e-6, 4.037e-4
-0.225, 8.419e-6, 4.042e-4
-0.220, 8.516e-6, 4.046e-4
-0.215, 8.633e-6, 4.050e-4
-0.210, 8.739e-6, 4.055e-4
-0.205, 8.859e-6, 4.059e-4
-0.200, 8.884e-6, 4.063e-4
-0.195, 8.931e-6, 4.068e-4
-0.190, 9.037e-6, 4.072e-4
-0.185, 9.147e-6, 4.077e-4
-0.180, 9.228e-6, 4.082e-4
-0.175, 9.290e-6, 4.086e-4
-0.170, 9.358e-6, 4.091e-4
-0.165, 9.448e-6, 4.096e-4
-0.160, 9.518e-6, 4.100e-4
-0.155, 9.562e-6, 4.105e-4
-0.150, 9.609e-6, 4.110e-4
-0.145, 9.661e-6, 4.115e-4
-0.140, 9.733e-6, 4.120e-4
-0.135, 9.754e-6, 4.125e-4
-0.130, 9.763e-6, 4.129e-4
-0.125, 9.761e-6, 4.134e-4
-0.120, 9.757e-6, 4.139e-4
-0.115, 9.766e-6, 4.144e-4
-0.110, 9.808e-6, 4.149e-4
-0.105, 9.825e-6, 4.154e-4
-0.100, 9.813e-6, 4.159e-4
-0.095, 9.807e-6, 4.164e-4
-0.090, 9.826e-6, 4.169e-4
-0.085, 9.852e-6, 4.174e-4
-0.080, 9.860e-6, 4.179e-4
-0.075, 9.862e-6, 4.183e-4
-0.070, 9.921e-6, 4.188e-4
-0.065, 1.001e-5, 4.193e-4
-0.060, 1.016e-5, 4.199e-4
-0.055, 1.033e-5, 4.204e-4
-0.050, 1.046e-5, 4.209e-4
-0.045, 1.061e-5, 4.214e-4
-0.040, 1.082e-5, 4.220e-4
-0.035, 1.106e-5, 4.225e-4
-0.030, 1.119e-5, 4.231e-4
-0.025, 1.126e-5, 4.236e-4
-0.020, 1.141e-5, 4.242e-4
-0.015, 1.155e-5, 4.248e-4
-0.010, 1.164e-5, 4.254e-4
-0.005, 1.169e-5, 4.260e-4
-0.000, 1.169e-5, 4.265e-4
0.005, 1.172e-5, 4.271e-4
0.010, 1.179e-5, 4.277e-4
0.015, 1.183e-5, 4.283e-4
0.020, 1.179e-5, 4.289e-4
0.025, 1.179e-5, 4.295e-4
0.030, 1.182e-5, 4.301e-4
0.035, 1.185e-5, 4.307e-4
0.040, 1.183e-5, 4.313e-4
0.045, 1.182e-5, 4.318e-4
0.050, 1.182e-5, 4.324e-4
0.055, 1.182e-5, 4.330e-4
0.060, 1.184e-5, 4.336e-4
0.065, 1.185e-5, 4.342e-4
0.070, 1.182e-5, 4.348e-4
0.075, 1.180e-5, 4.354e-4
0.080, 1.176e-5, 4.360e-4
0.085, 1.172e-5, 4.366e-4
0.090, 1.167e-5, 4.372e-4
0.095, 1.166e-5, 4.377e-4
0.100, 1.169e-5, 4.383e-4
0.105, 1.168e-5, 4.389e-4
0.110, 1.163e-5, 4.395e-4
0.115, 1.157e-5, 4.401e-4
0.120, 1.153e-5, 4.406e-4
0.125, 1.150e-5, 4.412e-4
0.130, 1.149e-5, 4.418e-4
0.135, 1.144e-5, 4.424e-4
0.140, 1.139e-5, 4.429e-4
0.145, 1.135e-5, 4.435e-4
0.150, 1.135e-5, 4.441e-4
0.155, 1.134e-5, 4.446e-4
0.160, 1.130e-5, 4.452e-4
0.165, 1.127e-5, 4.458e-4
0.170, 1.127e-5, 4.463e-4
0.175, 1.125e-5, 4.469e-4
0.180, 1.121e-5, 4.474e-4
0.185, 1.117e-5, 4.480e-4
0.190, 1.116e-5, 4.486e-4
0.195, 1.114e-5, 4.491e-4
0.200, 1.111e-5, 4.497e-4
0.205, 1.109e-5, 4.502e-4
0.210, 1.108e-5, 4.508e-4
0.215, 1.108e-5, 4.513e-4
0.220, 1.106e-5, 4.519e-4
0.225, 1.105e-5, 4.524e-4
0.230, 1.099e-5, 4.530e-4
0.235, 1.096e-5, 4.535e-4
0.240, 1.095e-5, 4.541e-4
0.245, 1.091e-5, 4.546e-4
0.250, 1.084e-5, 4.552e-4
0.255, 1.078e-5, 4.557e-4
0.260, 1.074e-5, 4.563e-4
0.265, 1.070e-5, 4.568e-4
0.270, 1.065e-5, 4.573e-4
0.275, 1.058e-5, 4.579e-4
0.280, 1.052e-5, 4.584e-4
0.285, 1.048e-5, 4.589e-4
0.290, 1.044e-5, 4.594e-4
0.295, 1.038e-5, 4.599e-4
0.300, 1.030e-5, 4.605e-4
0.305, 1.024e-5, 4.610e-4
0.310, 1.019e-5, 4.615e-4
0.315, 1.012e-5, 4.620e-4
0.320, 1.002e-5, 4.625e-4
0.325, 9.957e-6, 4.630e-4
0.330, 9.927e-6, 4.635e-4
0.335, 9.840e-6, 4.640e-4
0.340, 9.742e-6, 4.645e-4
0.345, 9.627e-6, 4.649e-4
0.350, 9.517e-6, 4.654e-4
0.355, 9.418e-6, 4.659e-4
0.360, 9.316e-6, 4.664e-4
0.365, 9.193e-6, 4.668e-4
0.370, 9.056e-6, 4.673e-4
0.375, 8.931e-6, 4.677e-4
0.380, 8.812e-6, 4.682e-4
0.385, 8.677e-6, 4.686e-4
0.390, 8.504e-6, 4.690e-4
0.395, 8.352e-6, 4.694e-4
0.400, 8.204e-6, 4.698e-4
0.405, 8.036e-6, 4.702e-4
0.410, 7.860e-6, 4.706e-4
0.415, 7.673e-6, 4.710e-4
0.420, 7.478e-6, 4.714e-4
0.425, 7.273e-6, 4.718e-4
0.430, 7.055e-6, 4.721e-4
0.435, 6.835e-6, 4.725e-4
0.440, 6.610e-6, 4.728e-4
0.445, 6.389e-6, 4.731e-4
0.450, 6.151e-6, 4.734e-4
0.455, 5.902e-6, 4.737e-4
0.460, 5.639e-6, 4.740e-4
0.465, 5.372e-6, 4.743e-4
0.470, 5.098e-6, 4.745e-4
0.475, 4.817e-6, 4.747e-4
0.480, 4.522e-6, 4.750e-4
0.485, 4.228e-6, 4.752e-4
0.490, 3.917e-6, 4.754e-4
0.495, 3.596e-6, 4.756e-4
0.500, 3.277e-6, 4.757e-4
0.505, 2.946e-6, 4.759e-4
0.510, 2.622e-6, 4.760e-4
0.515, 2.295e-6, 4.761e-4
0.520, 1.977e-6, 4.762e-4
0.525, 1.677e-6, 4.763e-4
0.530, 1.385e-6, 4.764e-4
0.535, 1.106e-6, 4.764e-4
0.540, 8.335e-7, 4.765e-4
0.545, 5.746e-7, 4.765e-4
0.550, 3.315e-7, 4.765e-4
0.555, 1.123e-7, 4.765e-4
0.560, -9.571e-8, 4.765e-4
0.565, -2.946e-7, 4.765e-4
0.570, -4.696e-7, 4.765e-4
0.575, -6.354e-7, 4.764e-4
0.580, -7.876e-7, 4.764e-4
0.585, -9.356e-7, 4.764e-4
0.590, -1.060e-6, 4.763e-4
0.595, -1.174e-6, 4.762e-4
0.600, -1.281e-6, 4.762e-4
0.605, -1.374e-6, 4.761e-4
0.610, -1.459e-6, 4.760e-4
0.615, -1.521e-6, 4.760e-4
0.620, -1.592e-6, 4.759e-4
0.625, -1.651e-6, 4.758e-4
0.630, -1.710e-6, 4.757e-4
0.635, -1.755e-6, 4.756e-4
0.640, -1.795e-6, 4.755e-4
0.645, -1.831e-6, 4.754e-4
0.650, -1.867e-6, 4.754e-4
0.655, -1.896e-6, 4.753e-4
0.660, -1.919e-6, 4.752e-4
0.665, -1.944e-6, 4.751e-4
0.670, -1.961e-6, 4.750e-4
0.675, -1.979e-6, 4.749e-4
0.680, -1.995e-6, 4.748e-4
0.685, -2.011e-6, 4.747e-4
0.690, -2.023e-6, 4.746e-4
0.695, -2.031e-6, 4.745e-4
0.700, -2.044e-6, 4.744e-4
0.705, -2.055e-6, 4.743e-4
0.710, -2.065e-6, 4.742e-4
0.715, -2.075e-6, 4.741e-4
0.720, -2.084e-6, 4.740e-4
0.725, -2.091e-6, 4.738e-4
0.730, -2.098e-6, 4.737e-4
0.735, -2.105e-6, 4.736e-4
0.740, -2.111e-6, 4.735e-4
0.745, -2.117e-6, 4.734e-4
0.750, -2.122e-6, 4.733e-4
0.755, -2.125e-6, 4.732e-4
0.760, -2.131e-6, 4.731e-4
0.765, -2.136e-6, 4.730e-4
0.770, -2.144e-6, 4.729e-4
0.775, -2.148e-6, 4.728e-4
0.780, -2.152e-6, 4.727e-4
0.785, -2.156e-6, 4.726e-4
0.790, -2.165e-6, 4.725e-4
0.795, -2.169e-6, 4.724e-4
0.800, -2.175e-6, 4.722e-4
0.805, -2.183e-6, 4.721e-4
0.810, -2.191e-6, 4.720e-4
0.815, -2.198e-6, 4.719e-4
0.820, -2.205e-6, 4.718e-4
0.825, -2.213e-6, 4.717e-4
0.830, -2.222e-6, 4.716e-4
0.835, -2.231e-6, 4.715e-4
0.840, -2.241e-6, 4.714e-4
0.845, -2.248e-6, 4.712e-4
0.850, -2.258e-6, 4.711e-4
0.855, -2.269e-6, 4.710e-4
0.860, -2.279e-6, 4.709e-4
0.865, -2.292e-6, 4.708e-4
0.870, -2.303e-6, 4.707e-4
0.875, -2.315e-6, 4.706e-4
0.880, -2.324e-6, 4.704e-4
0.885, -2.336e-6, 4.703e-4
0.890, -2.347e-6, 4.702e-4
0.895, -2.359e-6, 4.701e-4
0.900, -2.370e-6, 4.700e-4
0.905, -2.382e-6, 4.699e-4
0.910, -2.401e-6, 4.697e-4
0.915, -2.414e-6, 4.696e-4
0.920, -2.426e-6, 4.695e-4
0.925, -2.439e-6, 4.694e-4
0.930, -2.449e-6, 4.692e-4
0.935, -2.462e-6, 4.691e-4
0.940, -2.473e-6, 4.690e-4
0.945, -2.486e-6, 4.689e-4
0.950, -2.497e-6, 4.688e-4
0.955, -2.510e-6, 4.686e-4
0.960, -2.517e-6, 4.685e-4
0.965, -2.529e-6, 4.684e-4
0.970, -2.541e-6, 4.682e-4
0.975, -2.552e-6, 4.681e-4
0.980, -2.562e-6, 4.680e-4
0.985, -2.575e-6, 4.679e-4
0.990, -2.585e-6, 4.677e-4
0.995, -2.593e-6, 4.676e-4
1.000, -2.605e-6, 4.675e-4
1.005, -2.614e-6, 4.673e-4
1.010, -2.624e-6, 4.672e-4
1.015, -2.634e-6, 4.671e-4
1.020, -2.641e-6, 4.669e-4
1.025, -2.646e-6, 4.668e-4
1.030, -2.656e-6, 4.667e-4
1.035, -2.664e-6, 4.666e-4
1.040, -2.676e-6, 4.664e-4
1.045, -2.684e-6, 4.663e-4
1.050, -2.691e-6, 4.661e-4
1.055, -2.701e-6, 4.660e-4
1.060, -2.708e-6, 4.659e-4
1.065, -2.714e-6, 4.657e-4
1.070, -2.724e-6, 4.656e-4
1.075, -2.733e-6, 4.655e-4
1.080, -2.739e-6, 4.653e-4
1.085, -2.748e-6, 4.652e-4
1.090, -2.757e-6, 4.651e-4
1.095, -2.767e-6, 4.649e-4
1.100, -2.452e-6, 4.648e-4
