Nov. 1, 2023   13:55:14
Cyclic Voltammetry
File: c:\users\pku\desktop\zqk\жаЫй.txt
Data Source:  Experiment
Instrument Model:  CHI600B
Header: 
Note: 

Init E (V) = 0.65
High E (V) = 1.1
Low E (V) = -0.29
Init P/N = N
Scan Rate (V/s) = 0.1
Segment = 6
Sample Interval (V) = 0.005
Quiet Time (sec) = 2
Sensitivity (A/V) = 5e-6

Segment 1:
Ep = 0.385V
ip = 1.660e-5A
Ah = 1.180e-5C

Ep = -0.245V
ip = 2.123e-6A
Ah = 9.154e-7C

Segment 2:
Segment 3:
Ep = 0.380V
ip = 1.586e-5A
Ah = 1.203e-5C

Ep = -0.255V
ip = 6.015e-6A
Ah = 6.398e-6C

Segment 4:
Segment 5:
Ep = 0.380V
ip = 1.589e-5A
Ah = 1.203e-5C

Ep = -0.285V
ip = 3.992e-7A
Ah = 1.424e-7C

Segment 6:

Potential/V, Current/A, Charge/C

Segment 1:
0.645, 1.944e-7, 9.721e-9
0.640, 2.408e-7, 2.176e-8
0.635, 2.789e-7, 3.571e-8
0.630, 3.115e-7, 5.128e-8
0.625, 3.422e-7, 6.839e-8
0.620, 3.757e-7, 8.717e-8
0.615, 4.028e-7, 1.073e-7
0.610, 4.395e-7, 1.293e-7
0.605, 4.756e-7, 1.531e-7
0.600, 5.160e-7, 1.789e-7
0.595, 5.560e-7, 2.067e-7
0.590, 5.997e-7, 2.367e-7
0.585, 6.492e-7, 2.691e-7
0.580, 7.043e-7, 3.043e-7
0.575, 7.702e-7, 3.428e-7
0.570, 8.353e-7, 3.846e-7
0.565, 9.046e-7, 4.298e-7
0.560, 9.815e-7, 4.789e-7
0.555, 1.065e-6, 5.322e-7
0.550, 1.158e-6, 5.901e-7
0.545, 1.261e-6, 6.531e-7
0.540, 1.377e-6, 7.219e-7
0.535, 1.502e-6, 7.971e-7
0.530, 1.647e-6, 8.794e-7
0.525, 1.805e-6, 9.696e-7
0.520, 1.981e-6, 1.069e-6
0.515, 2.183e-6, 1.178e-6
0.510, 2.420e-6, 1.299e-6
0.505, 2.672e-6, 1.432e-6
0.500, 2.965e-6, 1.581e-6
0.495, 3.300e-6, 1.746e-6
0.490, 3.684e-6, 1.930e-6
0.485, 4.127e-6, 2.136e-6
0.480, 4.629e-6, 2.368e-6
0.475, 5.203e-6, 2.628e-6
0.470, 5.862e-6, 2.921e-6
0.465, 6.601e-6, 3.251e-6
0.460, 7.436e-6, 3.623e-6
0.455, 8.338e-6, 4.040e-6
0.450, 9.310e-6, 4.505e-6
0.445, 1.034e-5, 5.022e-6
0.440, 1.140e-5, 5.592e-6
0.435, 1.247e-5, 6.216e-6
0.430, 1.353e-5, 6.893e-6
0.425, 1.453e-5, 7.619e-6
0.420, 1.545e-5, 8.392e-6
0.415, 1.628e-5, 9.206e-6
0.410, 1.699e-5, 1.006e-5
0.405, 1.756e-5, 1.093e-5
0.400, 1.800e-5, 1.183e-5
0.395, 1.830e-5, 1.275e-5
0.390, 1.846e-5, 1.367e-5
0.385, 1.850e-5, 1.460e-5
0.380, 1.844e-5, 1.552e-5
0.375, 1.830e-5, 1.643e-5
0.370, 1.810e-5, 1.734e-5
0.365, 1.784e-5, 1.823e-5
0.360, 1.756e-5, 1.911e-5
0.355, 1.728e-5, 1.997e-5
0.350, 1.698e-5, 2.082e-5
0.345, 1.671e-5, 2.166e-5
0.340, 1.644e-5, 2.248e-5
0.335, 1.616e-5, 2.329e-5
0.330, 1.594e-5, 2.408e-5
0.325, 1.576e-5, 2.487e-5
0.320, 1.552e-5, 2.565e-5
0.315, 1.528e-5, 2.641e-5
0.310, 1.509e-5, 2.717e-5
0.305, 1.489e-5, 2.791e-5
0.300, 1.469e-5, 2.865e-5
0.295, 1.450e-5, 2.937e-5
0.290, 1.431e-5, 3.009e-5
0.285, 1.415e-5, 3.079e-5
0.280, 1.402e-5, 3.149e-5
0.275, 1.390e-5, 3.219e-5
0.270, 1.380e-5, 3.288e-5
0.265, 1.372e-5, 3.357e-5
0.260, 1.366e-5, 3.425e-5
0.255, 1.361e-5, 3.493e-5
0.250, 1.357e-5, 3.561e-5
0.245, 1.354e-5, 3.628e-5
0.240, 1.346e-5, 3.696e-5
0.235, 1.335e-5, 3.763e-5
0.230, 1.317e-5, 3.828e-5
0.225, 1.298e-5, 3.893e-5
0.220, 1.278e-5, 3.957e-5
0.215, 1.260e-5, 4.020e-5
0.210, 1.243e-5, 4.082e-5
0.205, 1.228e-5, 4.144e-5
0.200, 1.213e-5, 4.204e-5
0.195, 1.199e-5, 4.264e-5
0.190, 1.189e-5, 4.324e-5
0.185, 1.180e-5, 4.383e-5
0.180, 1.170e-5, 4.441e-5
0.175, 1.155e-5, 4.499e-5
0.170, 1.142e-5, 4.556e-5
0.165, 1.136e-5, 4.613e-5
0.160, 1.130e-5, 4.670e-5
0.155, 1.122e-5, 4.726e-5
0.150, 1.114e-5, 4.781e-5
0.145, 1.109e-5, 4.837e-5
0.140, 1.106e-5, 4.892e-5
0.135, 1.105e-5, 4.947e-5
0.130, 1.102e-5, 5.002e-5
0.125, 1.098e-5, 5.057e-5
0.120, 1.097e-5, 5.112e-5
0.115, 1.103e-5, 5.167e-5
0.110, 1.110e-5, 5.223e-5
0.105, 1.107e-5, 5.278e-5
0.100, 1.102e-5, 5.333e-5
0.095, 1.105e-5, 5.389e-5
0.090, 1.112e-5, 5.444e-5
0.085, 1.115e-5, 5.500e-5
0.080, 1.114e-5, 5.556e-5
0.075, 1.115e-5, 5.611e-5
0.070, 1.120e-5, 5.667e-5
0.065, 1.125e-5, 5.724e-5
0.060, 1.127e-5, 5.780e-5
0.055, 1.121e-5, 5.836e-5
0.050, 1.121e-5, 5.892e-5
0.045, 1.124e-5, 5.948e-5
0.040, 1.125e-5, 6.005e-5
0.035, 1.125e-5, 6.061e-5
0.030, 1.124e-5, 6.117e-5
0.025, 1.126e-5, 6.173e-5
0.020, 1.128e-5, 6.230e-5
0.015, 1.130e-5, 6.286e-5
0.010, 1.131e-5, 6.343e-5
0.005, 1.134e-5, 6.399e-5
0.000, 1.141e-5, 6.456e-5
-0.005, 1.149e-5, 6.514e-5
-0.010, 1.153e-5, 6.571e-5
-0.015, 1.155e-5, 6.629e-5
-0.020, 1.163e-5, 6.687e-5
-0.025, 1.177e-5, 6.746e-5
-0.030, 1.189e-5, 6.806e-5
-0.035, 1.196e-5, 6.866e-5
-0.040, 1.209e-5, 6.926e-5
-0.045, 1.234e-5, 6.988e-5
-0.050, 1.262e-5, 7.051e-5
-0.055, 1.281e-5, 7.115e-5
-0.060, 1.299e-5, 7.180e-5
-0.065, 1.318e-5, 7.246e-5
-0.070, 1.341e-5, 7.313e-5
-0.075, 1.360e-5, 7.381e-5
-0.080, 1.375e-5, 7.449e-5
-0.085, 1.390e-5, 7.519e-5
-0.090, 1.404e-5, 7.589e-5
-0.095, 1.414e-5, 7.660e-5
-0.100, 1.423e-5, 7.731e-5
-0.105, 1.432e-5, 7.803e-5
-0.110, 1.442e-5, 7.875e-5
-0.115, 1.444e-5, 7.947e-5
-0.120, 1.444e-5, 8.019e-5
-0.125, 1.448e-5, 8.092e-5
-0.130, 1.446e-5, 8.164e-5
-0.135, 1.444e-5, 8.236e-5
-0.140, 1.448e-5, 8.308e-5
-0.145, 1.447e-5, 8.381e-5
-0.150, 1.441e-5, 8.453e-5
-0.155, 1.443e-5, 8.525e-5
-0.160, 1.445e-5, 8.597e-5
-0.165, 1.445e-5, 8.670e-5
-0.170, 1.447e-5, 8.742e-5
-0.175, 1.454e-5, 8.815e-5
-0.180, 1.464e-5, 8.888e-5
-0.185, 1.483e-5, 8.962e-5
-0.190, 1.503e-5, 9.037e-5
-0.195, 1.523e-5, 9.113e-5
-0.200, 1.545e-5, 9.191e-5
-0.205, 1.567e-5, 9.269e-5
-0.210, 1.588e-5, 9.348e-5
-0.215, 1.610e-5, 9.429e-5
-0.220, 1.630e-5, 9.510e-5
-0.225, 1.647e-5, 9.593e-5
-0.230, 1.655e-5, 9.675e-5
-0.235, 1.662e-5, 9.758e-5
-0.240, 1.673e-5, 9.842e-5
-0.245, 1.677e-5, 9.926e-5
-0.250, 1.672e-5, 1.001e-4
-0.255, 1.659e-5, 1.009e-4
-0.260, 1.649e-5, 1.017e-4
-0.265, 1.635e-5, 1.026e-4
-0.270, 1.615e-5, 1.034e-4
-0.275, 1.595e-5, 1.042e-4
-0.280, 1.580e-5, 1.050e-4
-0.285, 1.560e-5, 1.057e-4
-0.290, 1.329e-5, 1.064e-4

Segment 2:
-0.285, 1.188e-5, 1.070e-4
-0.280, 1.140e-5, 1.076e-4
-0.275, 1.102e-5, 1.081e-4
-0.270, 1.065e-5, 1.087e-4
-0.265, 1.033e-5, 1.092e-4
-0.260, 1.003e-5, 1.097e-4
-0.255, 9.745e-6, 1.102e-4
-0.250, 9.486e-6, 1.106e-4
-0.245, 9.230e-6, 1.111e-4
-0.240, 8.992e-6, 1.115e-4
-0.235, 8.785e-6, 1.120e-4
-0.230, 8.618e-6, 1.124e-4
-0.225, 8.470e-6, 1.128e-4
-0.220, 8.340e-6, 1.133e-4
-0.215, 8.229e-6, 1.137e-4
-0.210, 8.143e-6, 1.141e-4
-0.205, 8.059e-6, 1.145e-4
-0.200, 7.956e-6, 1.149e-4
-0.195, 7.888e-6, 1.153e-4
-0.190, 7.860e-6, 1.157e-4
-0.185, 7.825e-6, 1.161e-4
-0.180, 7.807e-6, 1.164e-4
-0.175, 7.815e-6, 1.168e-4
-0.170, 7.812e-6, 1.172e-4
-0.165, 7.778e-6, 1.176e-4
-0.160, 7.762e-6, 1.180e-4
-0.155, 7.735e-6, 1.184e-4
-0.150, 7.720e-6, 1.188e-4
-0.145, 7.717e-6, 1.192e-4
-0.140, 7.667e-6, 1.195e-4
-0.135, 7.582e-6, 1.199e-4
-0.130, 7.549e-6, 1.203e-4
-0.125, 7.544e-6, 1.207e-4
-0.120, 7.547e-6, 1.211e-4
-0.115, 7.528e-6, 1.214e-4
-0.110, 7.499e-6, 1.218e-4
-0.105, 7.496e-6, 1.222e-4
-0.100, 7.535e-6, 1.226e-4
-0.095, 7.519e-6, 1.229e-4
-0.090, 7.455e-6, 1.233e-4
-0.085, 7.419e-6, 1.237e-4
-0.080, 7.417e-6, 1.240e-4
-0.075, 7.430e-6, 1.244e-4
-0.070, 7.467e-6, 1.248e-4
-0.065, 7.536e-6, 1.252e-4
-0.060, 7.627e-6, 1.256e-4
-0.055, 7.815e-6, 1.259e-4
-0.050, 8.045e-6, 1.263e-4
-0.045, 8.287e-6, 1.268e-4
-0.040, 8.530e-6, 1.272e-4
-0.035, 8.760e-6, 1.276e-4
-0.030, 8.936e-6, 1.281e-4
-0.025, 9.106e-6, 1.285e-4
-0.020, 9.282e-6, 1.290e-4
-0.015, 9.502e-6, 1.295e-4
-0.010, 9.692e-6, 1.299e-4
-0.005, 9.795e-6, 1.304e-4
-0.000, 9.882e-6, 1.309e-4
0.005, 1.002e-5, 1.314e-4
0.010, 1.015e-5, 1.319e-4
0.015, 1.023e-5, 1.325e-4
0.020, 1.029e-5, 1.330e-4
0.025, 1.038e-5, 1.335e-4
0.030, 1.052e-5, 1.340e-4
0.035, 1.070e-5, 1.345e-4
0.040, 1.078e-5, 1.351e-4
0.045, 1.084e-5, 1.356e-4
0.050, 1.097e-5, 1.362e-4
0.055, 1.112e-5, 1.367e-4
0.060, 1.122e-5, 1.373e-4
0.065, 1.121e-5, 1.379e-4
0.070, 1.119e-5, 1.384e-4
0.075, 1.117e-5, 1.390e-4
0.080, 1.115e-5, 1.395e-4
0.085, 1.102e-5, 1.401e-4
0.090, 1.085e-5, 1.406e-4
0.095, 1.073e-5, 1.412e-4
0.100, 1.061e-5, 1.417e-4
0.105, 1.046e-5, 1.422e-4
0.110, 1.032e-5, 1.427e-4
0.115, 1.020e-5, 1.432e-4
0.120, 1.008e-5, 1.437e-4
0.125, 9.967e-6, 1.442e-4
0.130, 9.859e-6, 1.447e-4
0.135, 9.770e-6, 1.452e-4
0.140, 9.700e-6, 1.457e-4
0.145, 9.649e-6, 1.462e-4
0.150, 9.623e-6, 1.467e-4
0.155, 9.578e-6, 1.471e-4
0.160, 9.521e-6, 1.476e-4
0.165, 9.502e-6, 1.481e-4
0.170, 9.508e-6, 1.486e-4
0.175, 9.497e-6, 1.491e-4
0.180, 9.455e-6, 1.495e-4
0.185, 9.407e-6, 1.500e-4
0.190, 9.371e-6, 1.505e-4
0.195, 9.331e-6, 1.509e-4
0.200, 9.266e-6, 1.514e-4
0.205, 9.207e-6, 1.519e-4
0.210, 9.168e-6, 1.523e-4
0.215, 9.133e-6, 1.528e-4
0.220, 9.083e-6, 1.532e-4
0.225, 9.029e-6, 1.537e-4
0.230, 8.988e-6, 1.541e-4
0.235, 8.951e-6, 1.546e-4
0.240, 8.914e-6, 1.550e-4
0.245, 8.884e-6, 1.555e-4
0.250, 8.892e-6, 1.559e-4
0.255, 8.912e-6, 1.564e-4
0.260, 8.933e-6, 1.568e-4
0.265, 8.964e-6, 1.572e-4
0.270, 9.021e-6, 1.577e-4
0.275, 9.084e-6, 1.582e-4
0.280, 9.143e-6, 1.586e-4
0.285, 9.196e-6, 1.591e-4
0.290, 9.228e-6, 1.595e-4
0.295, 9.297e-6, 1.600e-4
0.300, 9.377e-6, 1.605e-4
0.305, 9.428e-6, 1.609e-4
0.310, 9.478e-6, 1.614e-4
0.315, 9.549e-6, 1.619e-4
0.320, 9.659e-6, 1.624e-4
0.325, 9.756e-6, 1.629e-4
0.330, 9.829e-6, 1.633e-4
0.335, 9.897e-6, 1.638e-4
0.340, 9.988e-6, 1.643e-4
0.345, 1.011e-5, 1.648e-4
0.350, 1.021e-5, 1.654e-4
0.355, 1.027e-5, 1.659e-4
0.360, 1.028e-5, 1.664e-4
0.365, 1.029e-5, 1.669e-4
0.370, 1.034e-5, 1.674e-4
0.375, 1.035e-5, 1.679e-4
0.380, 1.031e-5, 1.685e-4
0.385, 1.026e-5, 1.690e-4
0.390, 1.021e-5, 1.695e-4
0.395, 1.018e-5, 1.700e-4
0.400, 1.010e-5, 1.705e-4
0.405, 9.934e-6, 1.710e-4
0.410, 9.780e-6, 1.715e-4
0.415, 9.630e-6, 1.720e-4
0.420, 9.443e-6, 1.724e-4
0.425, 9.189e-6, 1.729e-4
0.430, 8.916e-6, 1.733e-4
0.435, 8.659e-6, 1.738e-4
0.440, 8.399e-6, 1.742e-4
0.445, 8.117e-6, 1.746e-4
0.450, 7.804e-6, 1.750e-4
0.455, 7.489e-6, 1.754e-4
0.460, 7.179e-6, 1.757e-4
0.465, 6.858e-6, 1.761e-4
0.470, 6.523e-6, 1.764e-4
0.475, 6.160e-6, 1.767e-4
0.480, 5.794e-6, 1.770e-4
0.485, 5.423e-6, 1.773e-4
0.490, 5.039e-6, 1.775e-4
0.495, 4.637e-6, 1.777e-4
0.500, 4.229e-6, 1.779e-4
0.505, 3.818e-6, 1.781e-4
0.510, 3.408e-6, 1.783e-4
0.515, 2.999e-6, 1.785e-4
0.520, 2.599e-6, 1.786e-4
0.525, 2.210e-6, 1.787e-4
0.530, 1.844e-6, 1.788e-4
0.535, 1.498e-6, 1.789e-4
0.540, 1.171e-6, 1.789e-4
0.545, 8.633e-7, 1.790e-4
0.550, 5.666e-7, 1.790e-4
0.555, 3.047e-7, 1.790e-4
0.560, 6.097e-8, 1.790e-4
0.565, -1.608e-7, 1.790e-4
0.570, -3.683e-7, 1.790e-4
0.575, -5.528e-7, 1.790e-4
0.580, -7.225e-7, 1.789e-4
0.585, -8.864e-7, 1.789e-4
0.590, -1.024e-6, 1.788e-4
0.595, -1.150e-6, 1.788e-4
0.600, -1.259e-6, 1.787e-4
0.605, -1.359e-6, 1.786e-4
0.610, -1.447e-6, 1.786e-4
0.615, -1.515e-6, 1.785e-4
0.620, -1.588e-6, 1.784e-4
0.625, -1.650e-6, 1.783e-4
0.630, -1.706e-6, 1.782e-4
0.635, -1.753e-6, 1.782e-4
0.640, -1.794e-6, 1.781e-4
0.645, -1.832e-6, 1.780e-4
0.650, -1.863e-6, 1.779e-4
0.655, -1.894e-6, 1.778e-4
0.660, -1.918e-6, 1.777e-4
0.665, -1.942e-6, 1.776e-4
0.670, -1.959e-6, 1.775e-4
0.675, -1.976e-6, 1.774e-4
0.680, -1.992e-6, 1.773e-4
0.685, -2.008e-6, 1.772e-4
0.690, -2.017e-6, 1.771e-4
0.695, -2.030e-6, 1.770e-4
0.700, -2.040e-6, 1.769e-4
0.705, -2.048e-6, 1.768e-4
0.710, -2.057e-6, 1.767e-4
0.715, -2.070e-6, 1.766e-4
0.720, -2.077e-6, 1.765e-4
0.725, -2.081e-6, 1.764e-4
0.730, -2.088e-6, 1.763e-4
0.735, -2.096e-6, 1.762e-4
0.740, -2.100e-6, 1.761e-4
0.745, -2.105e-6, 1.760e-4
0.750, -2.112e-6, 1.759e-4
0.755, -2.117e-6, 1.757e-4
0.760, -2.121e-6, 1.756e-4
0.765, -2.126e-6, 1.755e-4
0.770, -2.129e-6, 1.754e-4
0.775, -2.135e-6, 1.753e-4
0.780, -2.139e-6, 1.752e-4
0.785, -2.145e-6, 1.751e-4
0.790, -2.149e-6, 1.750e-4
0.795, -2.154e-6, 1.749e-4
0.800, -2.161e-6, 1.748e-4
0.805, -2.169e-6, 1.747e-4
0.810, -2.175e-6, 1.746e-4
0.815, -2.182e-6, 1.745e-4
0.820, -2.190e-6, 1.743e-4
0.825, -2.198e-6, 1.742e-4
0.830, -2.207e-6, 1.741e-4
0.835, -2.216e-6, 1.740e-4
0.840, -2.225e-6, 1.739e-4
0.845, -2.233e-6, 1.738e-4
0.850, -2.244e-6, 1.737e-4
0.855, -2.255e-6, 1.736e-4
0.860, -2.266e-6, 1.735e-4
0.865, -2.276e-6, 1.733e-4
0.870, -2.290e-6, 1.732e-4
0.875, -2.300e-6, 1.731e-4
0.880, -2.313e-6, 1.730e-4
0.885, -2.323e-6, 1.729e-4
0.890, -2.335e-6, 1.728e-4
0.895, -2.345e-6, 1.726e-4
0.900, -2.360e-6, 1.725e-4
0.905, -2.370e-6, 1.724e-4
0.910, -2.384e-6, 1.723e-4
0.915, -2.403e-6, 1.722e-4
0.920, -2.416e-6, 1.721e-4
0.925, -2.427e-6, 1.719e-4
0.930, -2.439e-6, 1.718e-4
0.935, -2.451e-6, 1.717e-4
0.940, -2.465e-6, 1.716e-4
0.945, -2.475e-6, 1.714e-4
0.950, -2.489e-6, 1.713e-4
0.955, -2.501e-6, 1.712e-4
0.960, -2.512e-6, 1.711e-4
0.965, -2.520e-6, 1.709e-4
0.970, -2.534e-6, 1.708e-4
0.975, -2.544e-6, 1.707e-4
0.980, -2.557e-6, 1.706e-4
0.985, -2.567e-6, 1.704e-4
0.990, -2.578e-6, 1.703e-4
0.995, -2.588e-6, 1.702e-4
1.000, -2.598e-6, 1.700e-4
1.005, -2.608e-6, 1.699e-4
1.010, -2.617e-6, 1.698e-4
1.015, -2.628e-6, 1.696e-4
1.020, -2.636e-6, 1.695e-4
1.025, -2.639e-6, 1.694e-4
1.030, -2.650e-6, 1.692e-4
1.035, -2.659e-6, 1.691e-4
1.040, -2.669e-6, 1.690e-4
1.045, -2.678e-6, 1.688e-4
1.050, -2.686e-6, 1.687e-4
1.055, -2.695e-6, 1.686e-4
1.060, -2.703e-6, 1.684e-4
1.065, -2.709e-6, 1.683e-4
1.070, -2.716e-6, 1.682e-4
1.075, -2.727e-6, 1.680e-4
1.080, -2.734e-6, 1.679e-4
1.085, -2.740e-6, 1.678e-4
1.090, -2.752e-6, 1.676e-4
1.095, -2.759e-6, 1.675e-4
1.100, -2.443e-6, 1.674e-4

Segment 3:
1.095, -2.017e-6, 1.673e-4
1.090, -1.735e-6, 1.672e-4
1.085, -1.518e-6, 1.671e-4
1.080, -1.343e-6, 1.670e-4
1.075, -1.196e-6, 1.670e-4
1.070, -1.072e-6, 1.669e-4
1.065, -9.668e-7, 1.669e-4
1.060, -8.748e-7, 1.668e-4
1.055, -7.866e-7, 1.668e-4
1.050, -7.162e-7, 1.668e-4
1.045, -6.493e-7, 1.667e-4
1.040, -5.916e-7, 1.667e-4
1.035, -5.391e-7, 1.667e-4
1.030, -4.897e-7, 1.666e-4
1.025, -4.484e-7, 1.666e-4
1.020, -4.045e-7, 1.666e-4
1.015, -3.682e-7, 1.666e-4
1.010, -3.321e-7, 1.666e-4
1.005, -2.986e-7, 1.665e-4
1.000, -2.692e-7, 1.665e-4
0.995, -2.417e-7, 1.665e-4
0.990, -2.136e-7, 1.665e-4
0.985, -1.884e-7, 1.665e-4
0.980, -1.668e-7, 1.665e-4
0.975, -1.429e-7, 1.665e-4
0.970, -1.218e-7, 1.665e-4
0.965, -9.952e-8, 1.665e-4
0.960, -8.113e-8, 1.665e-4
0.955, -6.633e-8, 1.665e-4
0.950, -4.785e-8, 1.665e-4
0.945, -3.024e-8, 1.665e-4
0.940, -1.540e-8, 1.665e-4
0.935, 4.416e-10, 1.665e-4
0.930, 1.592e-8, 1.665e-4
0.925, 2.833e-8, 1.665e-4
0.920, 4.108e-8, 1.665e-4
0.915, 5.502e-8, 1.665e-4
0.910, 6.869e-8, 1.665e-4
0.905, 8.068e-8, 1.665e-4
0.900, 9.434e-8, 1.665e-4
0.895, 1.039e-7, 1.665e-4
0.890, 1.170e-7, 1.665e-4
0.885, 1.275e-7, 1.665e-4
0.880, 1.405e-7, 1.665e-4
0.875, 1.493e-7, 1.665e-4
0.870, 1.626e-7, 1.665e-4
0.865, 1.707e-7, 1.665e-4
0.860, 1.829e-7, 1.665e-4
0.855, 1.936e-7, 1.666e-4
0.850, 2.023e-7, 1.666e-4
0.845, 2.126e-7, 1.666e-4
0.840, 2.221e-7, 1.666e-4
0.835, 2.327e-7, 1.666e-4
0.830, 2.441e-7, 1.666e-4
0.825, 2.537e-7, 1.666e-4
0.820, 2.634e-7, 1.666e-4
0.815, 2.742e-7, 1.666e-4
0.810, 2.859e-7, 1.667e-4
0.805, 2.959e-7, 1.667e-4
0.800, 3.070e-7, 1.667e-4
0.795, 3.168e-7, 1.667e-4
0.790, 3.281e-7, 1.667e-4
0.785, 3.397e-7, 1.667e-4
0.780, 3.500e-7, 1.668e-4
0.775, 3.612e-7, 1.668e-4
0.770, 3.759e-7, 1.668e-4
0.765, 3.876e-7, 1.668e-4
0.760, 3.974e-7, 1.668e-4
0.755, 4.099e-7, 1.669e-4
0.750, 4.231e-7, 1.669e-4
0.745, 4.351e-7, 1.669e-4
0.740, 4.479e-7, 1.669e-4
0.735, 4.620e-7, 1.669e-4
0.730, 4.758e-7, 1.670e-4
0.725, 4.915e-7, 1.670e-4
0.720, 5.074e-7, 1.670e-4
0.715, 5.229e-7, 1.670e-4
0.710, 5.377e-7, 1.671e-4
0.705, 5.522e-7, 1.671e-4
0.700, 5.714e-7, 1.671e-4
0.695, 5.899e-7, 1.672e-4
0.690, 6.061e-7, 1.672e-4
0.685, 6.252e-7, 1.672e-4
0.680, 6.458e-7, 1.672e-4
0.675, 6.659e-7, 1.673e-4
0.670, 6.877e-7, 1.673e-4
0.665, 7.131e-7, 1.674e-4
0.660, 7.428e-7, 1.674e-4
0.655, 7.680e-7, 1.674e-4
0.650, 7.931e-7, 1.675e-4
0.645, 8.209e-7, 1.675e-4
0.640, 8.487e-7, 1.676e-4
0.635, 8.770e-7, 1.676e-4
0.630, 9.107e-7, 1.676e-4
0.625, 9.406e-7, 1.677e-4
0.620, 9.760e-7, 1.677e-4
0.615, 1.008e-6, 1.678e-4
0.610, 1.049e-6, 1.678e-4
0.605, 1.090e-6, 1.679e-4
0.600, 1.133e-6, 1.679e-4
0.595, 1.180e-6, 1.680e-4
0.590, 1.229e-6, 1.681e-4
0.585, 1.282e-6, 1.681e-4
0.580, 1.337e-6, 1.682e-4
0.575, 1.396e-6, 1.683e-4
0.570, 1.462e-6, 1.683e-4
0.565, 1.533e-6, 1.684e-4
0.560, 1.609e-6, 1.685e-4
0.555, 1.690e-6, 1.686e-4
0.550, 1.777e-6, 1.687e-4
0.545, 1.874e-6, 1.688e-4
0.540, 1.978e-6, 1.689e-4
0.535, 2.094e-6, 1.690e-4
0.530, 2.222e-6, 1.691e-4
0.525, 2.375e-6, 1.692e-4
0.520, 2.537e-6, 1.693e-4
0.515, 2.718e-6, 1.695e-4
0.510, 2.927e-6, 1.696e-4
0.505, 3.169e-6, 1.698e-4
0.500, 3.439e-6, 1.699e-4
0.495, 3.751e-6, 1.701e-4
0.490, 4.117e-6, 1.703e-4
0.485, 4.532e-6, 1.706e-4
0.480, 5.012e-6, 1.708e-4
0.475, 5.567e-6, 1.711e-4
0.470, 6.198e-6, 1.714e-4
0.465, 6.910e-6, 1.717e-4
0.460, 7.702e-6, 1.721e-4
0.455, 8.566e-6, 1.726e-4
0.450, 9.492e-6, 1.730e-4
0.445, 1.047e-5, 1.736e-4
0.440, 1.147e-5, 1.741e-4
0.435, 1.248e-5, 1.748e-4
0.430, 1.348e-5, 1.754e-4
0.425, 1.441e-5, 1.761e-4
0.420, 1.529e-5, 1.769e-4
0.415, 1.607e-5, 1.777e-4
0.410, 1.675e-5, 1.786e-4
0.405, 1.730e-5, 1.794e-4
0.400, 1.773e-5, 1.803e-4
0.395, 1.805e-5, 1.812e-4
0.390, 1.825e-5, 1.821e-4
0.385, 1.834e-5, 1.830e-4
0.380, 1.834e-5, 1.840e-4
0.375, 1.828e-5, 1.849e-4
0.370, 1.817e-5, 1.858e-4
0.365, 1.800e-5, 1.867e-4
0.360, 1.782e-5, 1.876e-4
0.355, 1.765e-5, 1.885e-4
0.350, 1.747e-5, 1.893e-4
0.345, 1.728e-5, 1.902e-4
0.340, 1.708e-5, 1.910e-4
0.335, 1.690e-5, 1.919e-4
0.330, 1.675e-5, 1.927e-4
0.325, 1.656e-5, 1.936e-4
0.320, 1.636e-5, 1.944e-4
0.315, 1.616e-5, 1.952e-4
0.310, 1.596e-5, 1.960e-4
0.305, 1.572e-5, 1.968e-4
0.300, 1.543e-5, 1.975e-4
0.295, 1.512e-5, 1.983e-4
0.290, 1.477e-5, 1.990e-4
0.285, 1.441e-5, 1.997e-4
0.280, 1.406e-5, 2.005e-4
0.275, 1.371e-5, 2.011e-4
0.270, 1.337e-5, 2.018e-4
0.265, 1.305e-5, 2.025e-4
0.260, 1.277e-5, 2.031e-4
0.255, 1.249e-5, 2.037e-4
0.250, 1.223e-5, 2.043e-4
0.245, 1.201e-5, 2.049e-4
0.240, 1.181e-5, 2.055e-4
0.235, 1.162e-5, 2.061e-4
0.230, 1.146e-5, 2.067e-4
0.225, 1.132e-5, 2.072e-4
0.220, 1.122e-5, 2.078e-4
0.215, 1.113e-5, 2.084e-4
0.210, 1.106e-5, 2.089e-4
0.205, 1.099e-5, 2.095e-4
0.200, 1.092e-5, 2.100e-4
0.195, 1.088e-5, 2.106e-4
0.190, 1.088e-5, 2.111e-4
0.185, 1.087e-5, 2.116e-4
0.180, 1.086e-5, 2.122e-4
0.175, 1.088e-5, 2.127e-4
0.170, 1.092e-5, 2.133e-4
0.165, 1.091e-5, 2.138e-4
0.160, 1.085e-5, 2.144e-4
0.155, 1.083e-5, 2.149e-4
0.150, 1.084e-5, 2.154e-4
0.145, 1.080e-5, 2.160e-4
0.140, 1.073e-5, 2.165e-4
0.135, 1.063e-5, 2.171e-4
0.130, 1.057e-5, 2.176e-4
0.125, 1.055e-5, 2.181e-4
0.120, 1.050e-5, 2.186e-4
0.115, 1.048e-5, 2.192e-4
0.110, 1.044e-5, 2.197e-4
0.105, 1.043e-5, 2.202e-4
0.100, 1.046e-5, 2.207e-4
0.095, 1.044e-5, 2.212e-4
0.090, 1.045e-5, 2.218e-4
0.085, 1.048e-5, 2.223e-4
0.080, 1.051e-5, 2.228e-4
0.075, 1.052e-5, 2.233e-4
0.070, 1.053e-5, 2.239e-4
0.065, 1.054e-5, 2.244e-4
0.060, 1.047e-5, 2.249e-4
0.055, 1.040e-5, 2.254e-4
0.050, 1.035e-5, 2.260e-4
0.045, 1.028e-5, 2.265e-4
0.040, 1.016e-5, 2.270e-4
0.035, 1.003e-5, 2.275e-4
0.030, 9.907e-6, 2.280e-4
0.025, 9.789e-6, 2.285e-4
0.020, 9.677e-6, 2.290e-4
0.015, 9.566e-6, 2.294e-4
0.010, 9.459e-6, 2.299e-4
0.005, 9.369e-6, 2.304e-4
0.000, 9.289e-6, 2.308e-4
-0.005, 9.206e-6, 2.313e-4
-0.010, 9.121e-6, 2.318e-4
-0.015, 9.058e-6, 2.322e-4
-0.020, 9.012e-6, 2.327e-4
-0.025, 8.975e-6, 2.331e-4
-0.030, 8.935e-6, 2.336e-4
-0.035, 8.910e-6, 2.340e-4
-0.040, 8.899e-6, 2.344e-4
-0.045, 8.906e-6, 2.349e-4
-0.050, 8.951e-6, 2.353e-4
-0.055, 9.035e-6, 2.358e-4
-0.060, 9.191e-6, 2.362e-4
-0.065, 9.380e-6, 2.367e-4
-0.070, 9.597e-6, 2.372e-4
-0.075, 9.824e-6, 2.377e-4
-0.080, 1.004e-5, 2.382e-4
-0.085, 1.024e-5, 2.387e-4
-0.090, 1.039e-5, 2.392e-4
-0.095, 1.053e-5, 2.397e-4
-0.100, 1.068e-5, 2.403e-4
-0.105, 1.080e-5, 2.408e-4
-0.110, 1.089e-5, 2.414e-4
-0.115, 1.094e-5, 2.419e-4
-0.120, 1.101e-5, 2.425e-4
-0.125, 1.108e-5, 2.430e-4
-0.130, 1.117e-5, 2.436e-4
-0.135, 1.126e-5, 2.441e-4
-0.140, 1.133e-5, 2.447e-4
-0.145, 1.142e-5, 2.453e-4
-0.150, 1.153e-5, 2.459e-4
-0.155, 1.166e-5, 2.464e-4
-0.160, 1.184e-5, 2.470e-4
-0.165, 1.204e-5, 2.476e-4
-0.170, 1.227e-5, 2.482e-4
-0.175, 1.255e-5, 2.489e-4
-0.180, 1.283e-5, 2.495e-4
-0.185, 1.308e-5, 2.502e-4
-0.190, 1.338e-5, 2.508e-4
-0.195, 1.366e-5, 2.515e-4
-0.200, 1.389e-5, 2.522e-4
-0.205, 1.406e-5, 2.529e-4
-0.210, 1.424e-5, 2.536e-4
-0.215, 1.441e-5, 2.543e-4
-0.220, 1.457e-5, 2.551e-4
-0.225, 1.470e-5, 2.558e-4
-0.230, 1.482e-5, 2.566e-4
-0.235, 1.491e-5, 2.573e-4
-0.240, 1.502e-5, 2.580e-4
-0.245, 1.512e-5, 2.588e-4
-0.250, 1.521e-5, 2.596e-4
-0.255, 1.524e-5, 2.603e-4
-0.260, 1.517e-5, 2.611e-4
-0.265, 1.518e-5, 2.618e-4
-0.270, 1.519e-5, 2.626e-4
-0.275, 1.516e-5, 2.634e-4
-0.280, 1.513e-5, 2.641e-4
-0.285, 1.510e-5, 2.649e-4
-0.290, 1.297e-5, 2.655e-4

Segment 4:
-0.285, 1.164e-5, 2.661e-4
-0.280, 1.124e-5, 2.667e-4
-0.275, 1.092e-5, 2.672e-4
-0.270, 1.063e-5, 2.677e-4
-0.265, 1.034e-5, 2.683e-4
-0.260, 1.004e-5, 2.688e-4
-0.255, 9.702e-6, 2.692e-4
-0.250, 9.408e-6, 2.697e-4
-0.245, 9.130e-6, 2.702e-4
-0.240, 8.860e-6, 2.706e-4
-0.235, 8.574e-6, 2.710e-4
-0.230, 8.335e-6, 2.715e-4
-0.225, 8.149e-6, 2.719e-4
-0.220, 7.992e-6, 2.723e-4
-0.215, 7.859e-6, 2.727e-4
-0.210, 7.748e-6, 2.731e-4
-0.205, 7.698e-6, 2.734e-4
-0.200, 7.663e-6, 2.738e-4
-0.195, 7.680e-6, 2.742e-4
-0.190, 7.743e-6, 2.746e-4
-0.185, 7.854e-6, 2.750e-4
-0.180, 7.974e-6, 2.754e-4
-0.175, 8.153e-6, 2.758e-4
-0.170, 8.314e-6, 2.762e-4
-0.165, 8.471e-6, 2.766e-4
-0.160, 8.671e-6, 2.771e-4
-0.155, 8.900e-6, 2.775e-4
-0.150, 9.171e-6, 2.780e-4
-0.145, 9.431e-6, 2.784e-4
-0.140, 9.655e-6, 2.789e-4
-0.135, 9.799e-6, 2.794e-4
-0.130, 9.928e-6, 2.799e-4
-0.125, 1.003e-5, 2.804e-4
-0.120, 1.002e-5, 2.809e-4
-0.115, 9.984e-6, 2.814e-4
-0.110, 9.989e-6, 2.819e-4
-0.105, 9.902e-6, 2.824e-4
-0.100, 9.811e-6, 2.829e-4
-0.095, 9.709e-6, 2.834e-4
-0.090, 9.547e-6, 2.839e-4
-0.085, 9.351e-6, 2.843e-4
-0.080, 9.148e-6, 2.848e-4
-0.075, 8.922e-6, 2.852e-4
-0.070, 8.709e-6, 2.857e-4
-0.065, 8.571e-6, 2.861e-4
-0.060, 8.465e-6, 2.865e-4
-0.055, 8.398e-6, 2.869e-4
-0.050, 8.387e-6, 2.874e-4
-0.045, 8.384e-6, 2.878e-4
-0.040, 8.366e-6, 2.882e-4
-0.035, 8.363e-6, 2.886e-4
-0.030, 8.376e-6, 2.890e-4
-0.025, 8.367e-6, 2.894e-4
-0.020, 8.371e-6, 2.899e-4
-0.015, 8.379e-6, 2.903e-4
-0.010, 8.414e-6, 2.907e-4
-0.005, 8.434e-6, 2.911e-4
-0.000, 8.425e-6, 2.915e-4
0.005, 8.463e-6, 2.920e-4
0.010, 8.525e-6, 2.924e-4
0.015, 8.595e-6, 2.928e-4
0.020, 8.679e-6, 2.933e-4
0.025, 8.770e-6, 2.937e-4
0.030, 8.885e-6, 2.941e-4
0.035, 8.982e-6, 2.946e-4
0.040, 9.027e-6, 2.950e-4
0.045, 9.055e-6, 2.955e-4
0.050, 9.076e-6, 2.960e-4
0.055, 9.061e-6, 2.964e-4
0.060, 8.990e-6, 2.969e-4
0.065, 8.888e-6, 2.973e-4
0.070, 8.763e-6, 2.977e-4
0.075, 8.639e-6, 2.982e-4
0.080, 8.487e-6, 2.986e-4
0.085, 8.320e-6, 2.990e-4
0.090, 8.159e-6, 2.994e-4
0.095, 8.027e-6, 2.998e-4
0.100, 7.913e-6, 3.002e-4
0.105, 7.815e-6, 3.006e-4
0.110, 7.740e-6, 3.010e-4
0.115, 7.682e-6, 3.014e-4
0.120, 7.627e-6, 3.018e-4
0.125, 7.622e-6, 3.021e-4
0.130, 7.701e-6, 3.025e-4
0.135, 7.887e-6, 3.029e-4
0.140, 8.215e-6, 3.033e-4
0.145, 8.732e-6, 3.038e-4
0.150, 9.349e-6, 3.042e-4
0.155, 9.940e-6, 3.047e-4
0.160, 1.039e-5, 3.052e-4
0.165, 1.073e-5, 3.058e-4
0.170, 1.099e-5, 3.063e-4
0.175, 1.120e-5, 3.069e-4
0.180, 1.134e-5, 3.075e-4
0.185, 1.140e-5, 3.080e-4
0.190, 1.137e-5, 3.086e-4
0.195, 1.131e-5, 3.092e-4
0.200, 1.127e-5, 3.097e-4
0.205, 1.120e-5, 3.103e-4
0.210, 1.109e-5, 3.108e-4
0.215, 1.098e-5, 3.114e-4
0.220, 1.089e-5, 3.119e-4
0.225, 1.077e-5, 3.125e-4
0.230, 1.064e-5, 3.130e-4
0.235, 1.050e-5, 3.135e-4
0.240, 1.036e-5, 3.140e-4
0.245, 1.023e-5, 3.146e-4
0.250, 1.011e-5, 3.151e-4
0.255, 9.971e-6, 3.156e-4
0.260, 9.859e-6, 3.161e-4
0.265, 9.738e-6, 3.165e-4
0.270, 9.597e-6, 3.170e-4
0.275, 9.476e-6, 3.175e-4
0.280, 9.366e-6, 3.180e-4
0.285, 9.261e-6, 3.184e-4
0.290, 9.155e-6, 3.189e-4
0.295, 9.048e-6, 3.193e-4
0.300, 8.962e-6, 3.198e-4
0.305, 8.877e-6, 3.202e-4
0.310, 8.778e-6, 3.207e-4
0.315, 8.678e-6, 3.211e-4
0.320, 8.625e-6, 3.215e-4
0.325, 8.587e-6, 3.220e-4
0.330, 8.526e-6, 3.224e-4
0.335, 8.459e-6, 3.228e-4
0.340, 8.430e-6, 3.232e-4
0.345, 8.423e-6, 3.237e-4
0.350, 8.403e-6, 3.241e-4
0.355, 8.381e-6, 3.245e-4
0.360, 8.358e-6, 3.249e-4
0.365, 8.349e-6, 3.253e-4
0.370, 8.338e-6, 3.257e-4
0.375, 8.320e-6, 3.262e-4
0.380, 8.304e-6, 3.266e-4
0.385, 8.284e-6, 3.270e-4
0.390, 8.267e-6, 3.274e-4
0.395, 8.238e-6, 3.278e-4
0.400, 8.191e-6, 3.282e-4
0.405, 8.137e-6, 3.286e-4
0.410, 8.094e-6, 3.290e-4
0.415, 8.037e-6, 3.294e-4
0.420, 7.943e-6, 3.298e-4
0.425, 7.831e-6, 3.302e-4
0.430, 7.711e-6, 3.306e-4
0.435, 7.582e-6, 3.310e-4
0.440, 7.434e-6, 3.314e-4
0.445, 7.270e-6, 3.317e-4
0.450, 7.082e-6, 3.321e-4
0.455, 6.873e-6, 3.324e-4
0.460, 6.653e-6, 3.328e-4
0.465, 6.414e-6, 3.331e-4
0.470, 6.151e-6, 3.334e-4
0.475, 5.867e-6, 3.337e-4
0.480, 5.565e-6, 3.340e-4
0.485, 5.234e-6, 3.342e-4
0.490, 4.904e-6, 3.345e-4
0.495, 4.561e-6, 3.347e-4
0.500, 4.197e-6, 3.349e-4
0.505, 3.810e-6, 3.351e-4
0.510, 3.423e-6, 3.353e-4
0.515, 3.047e-6, 3.354e-4
0.520, 2.671e-6, 3.356e-4
0.525, 2.299e-6, 3.357e-4
0.530, 1.939e-6, 3.358e-4
0.535, 1.602e-6, 3.358e-4
0.540, 1.281e-6, 3.359e-4
0.545, 9.767e-7, 3.360e-4
0.550, 6.826e-7, 3.360e-4
0.555, 4.112e-7, 3.360e-4
0.560, 1.599e-7, 3.360e-4
0.565, -7.369e-8, 3.360e-4
0.570, -2.845e-7, 3.360e-4
0.575, -4.821e-7, 3.360e-4
0.580, -6.607e-7, 3.359e-4
0.585, -8.284e-7, 3.359e-4
0.590, -9.765e-7, 3.359e-4
0.595, -1.111e-6, 3.358e-4
0.600, -1.230e-6, 3.357e-4
0.605, -1.336e-6, 3.357e-4
0.610, -1.430e-6, 3.356e-4
0.615, -1.505e-6, 3.355e-4
0.620, -1.581e-6, 3.354e-4
0.625, -1.647e-6, 3.354e-4
0.630, -1.705e-6, 3.353e-4
0.635, -1.754e-6, 3.352e-4
0.640, -1.797e-6, 3.351e-4
0.645, -1.837e-6, 3.350e-4
0.650, -1.871e-6, 3.349e-4
0.655, -1.902e-6, 3.348e-4
0.660, -1.927e-6, 3.347e-4
0.665, -1.953e-6, 3.346e-4
0.670, -1.971e-6, 3.345e-4
0.675, -1.989e-6, 3.344e-4
0.680, -2.006e-6, 3.343e-4
0.685, -2.020e-6, 3.342e-4
0.690, -2.030e-6, 3.341e-4
0.695, -2.042e-6, 3.340e-4
0.700, -2.052e-6, 3.339e-4
0.705, -2.063e-6, 3.338e-4
0.710, -2.072e-6, 3.337e-4
0.715, -2.083e-6, 3.336e-4
0.720, -2.091e-6, 3.335e-4
0.725, -2.099e-6, 3.334e-4
0.730, -2.105e-6, 3.333e-4
0.735, -2.112e-6, 3.332e-4
0.740, -2.117e-6, 3.331e-4
0.745, -2.121e-6, 3.330e-4
0.750, -2.125e-6, 3.329e-4
0.755, -2.128e-6, 3.328e-4
0.760, -2.133e-6, 3.327e-4
0.765, -2.139e-6, 3.326e-4
0.770, -2.145e-6, 3.324e-4
0.775, -2.148e-6, 3.323e-4
0.780, -2.153e-6, 3.322e-4
0.785, -2.158e-6, 3.321e-4
0.790, -2.165e-6, 3.320e-4
0.795, -2.170e-6, 3.319e-4
0.800, -2.175e-6, 3.318e-4
0.805, -2.182e-6, 3.317e-4
0.810, -2.191e-6, 3.316e-4
0.815, -2.197e-6, 3.315e-4
0.820, -2.203e-6, 3.314e-4
0.825, -2.213e-6, 3.312e-4
0.830, -2.220e-6, 3.311e-4
0.835, -2.229e-6, 3.310e-4
0.840, -2.239e-6, 3.309e-4
0.845, -2.247e-6, 3.308e-4
0.850, -2.258e-6, 3.307e-4
0.855, -2.268e-6, 3.306e-4
0.860, -2.277e-6, 3.305e-4
0.865, -2.289e-6, 3.303e-4
0.870, -2.303e-6, 3.302e-4
0.875, -2.313e-6, 3.301e-4
0.880, -2.323e-6, 3.300e-4
0.885, -2.335e-6, 3.299e-4
0.890, -2.345e-6, 3.298e-4
0.895, -2.358e-6, 3.296e-4
0.900, -2.368e-6, 3.295e-4
0.905, -2.381e-6, 3.294e-4
0.910, -2.399e-6, 3.293e-4
0.915, -2.413e-6, 3.292e-4
0.920, -2.424e-6, 3.290e-4
0.925, -2.438e-6, 3.289e-4
0.930, -2.448e-6, 3.288e-4
0.935, -2.461e-6, 3.287e-4
0.940, -2.471e-6, 3.286e-4
0.945, -2.484e-6, 3.284e-4
0.950, -2.496e-6, 3.283e-4
0.955, -2.509e-6, 3.282e-4
0.960, -2.517e-6, 3.281e-4
0.965, -2.529e-6, 3.279e-4
0.970, -2.541e-6, 3.278e-4
0.975, -2.551e-6, 3.277e-4
0.980, -2.561e-6, 3.275e-4
0.985, -2.574e-6, 3.274e-4
0.990, -2.585e-6, 3.273e-4
0.995, -2.594e-6, 3.272e-4
1.000, -2.605e-6, 3.270e-4
1.005, -2.613e-6, 3.269e-4
1.010, -2.622e-6, 3.268e-4
1.015, -2.633e-6, 3.266e-4
1.020, -2.640e-6, 3.265e-4
1.025, -2.645e-6, 3.264e-4
1.030, -2.655e-6, 3.262e-4
1.035, -2.664e-6, 3.261e-4
1.040, -2.674e-6, 3.260e-4
1.045, -2.684e-6, 3.258e-4
1.050, -2.690e-6, 3.257e-4
1.055, -2.700e-6, 3.256e-4
1.060, -2.708e-6, 3.254e-4
1.065, -2.713e-6, 3.253e-4
1.070, -2.721e-6, 3.252e-4
1.075, -2.732e-6, 3.250e-4
1.080, -2.738e-6, 3.249e-4
1.085, -2.747e-6, 3.248e-4
1.090, -2.756e-6, 3.246e-4
1.095, -2.764e-6, 3.245e-4
1.100, -2.448e-6, 3.244e-4

Segment 5:
1.095, -2.021e-6, 3.243e-4
1.090, -1.742e-6, 3.242e-4
1.085, -1.524e-6, 3.241e-4
1.080, -1.349e-6, 3.240e-4
1.075, -1.201e-6, 3.240e-4
1.070, -1.079e-6, 3.239e-4
1.065, -9.727e-7, 3.239e-4
1.060, -8.798e-7, 3.238e-4
1.055, -7.910e-7, 3.238e-4
1.050, -7.191e-7, 3.237e-4
1.045, -6.539e-7, 3.237e-4
1.040, -5.950e-7, 3.237e-4
1.035, -5.428e-7, 3.236e-4
1.030, -4.936e-7, 3.236e-4
1.025, -4.528e-7, 3.236e-4
1.020, -4.074e-7, 3.236e-4
1.015, -3.707e-7, 3.236e-4
1.010, -3.356e-7, 3.235e-4
1.005, -3.021e-7, 3.235e-4
1.000, -2.721e-7, 3.235e-4
0.995, -2.439e-7, 3.235e-4
0.990, -2.163e-7, 3.235e-4
0.985, -1.918e-7, 3.235e-4
0.980, -1.691e-7, 3.235e-4
0.975, -1.464e-7, 3.235e-4
0.970, -1.231e-7, 3.235e-4
0.965, -1.031e-7, 3.235e-4
0.960, -8.453e-8, 3.235e-4
0.955, -6.842e-8, 3.234e-4
0.950, -5.033e-8, 3.234e-4
0.945, -3.218e-8, 3.234e-4
0.940, -1.649e-8, 3.234e-4
0.935, -2.107e-9, 3.234e-4
0.930, 1.222e-8, 3.234e-4
0.925, 2.650e-8, 3.234e-4
0.920, 3.967e-8, 3.234e-4
0.915, 5.329e-8, 3.235e-4
0.910, 6.729e-8, 3.235e-4
0.905, 7.902e-8, 3.235e-4
0.900, 9.347e-8, 3.235e-4
0.895, 1.026e-7, 3.235e-4
0.890, 1.153e-7, 3.235e-4
0.885, 1.269e-7, 3.235e-4
0.880, 1.390e-7, 3.235e-4
0.875, 1.487e-7, 3.235e-4
0.870, 1.594e-7, 3.235e-4
0.865, 1.708e-7, 3.235e-4
0.860, 1.809e-7, 3.235e-4
0.855, 1.928e-7, 3.235e-4
0.850, 2.008e-7, 3.235e-4
0.845, 2.127e-7, 3.236e-4
0.840, 2.216e-7, 3.236e-4
0.835, 2.330e-7, 3.236e-4
0.830, 2.432e-7, 3.236e-4
0.825, 2.523e-7, 3.236e-4
0.820, 2.629e-7, 3.236e-4
0.815, 2.739e-7, 3.236e-4
0.810, 2.857e-7, 3.236e-4
0.805, 2.952e-7, 3.237e-4
0.800, 3.055e-7, 3.237e-4
0.795, 3.174e-7, 3.237e-4
0.790, 3.267e-7, 3.237e-4
0.785, 3.402e-7, 3.237e-4
0.780, 3.486e-7, 3.237e-4
0.775, 3.627e-7, 3.238e-4
0.770, 3.746e-7, 3.238e-4
0.765, 3.873e-7, 3.238e-4
0.760, 3.973e-7, 3.238e-4
0.755, 4.112e-7, 3.238e-4
0.750, 4.221e-7, 3.239e-4
0.745, 4.363e-7, 3.239e-4
0.740, 4.471e-7, 3.239e-4
0.735, 4.630e-7, 3.239e-4
0.730, 4.784e-7, 3.239e-4
0.725, 4.913e-7, 3.240e-4
0.720, 5.080e-7, 3.240e-4
0.715, 5.243e-7, 3.240e-4
0.710, 5.384e-7, 3.240e-4
0.705, 5.556e-7, 3.241e-4
0.700, 5.730e-7, 3.241e-4
0.695, 5.902e-7, 3.241e-4
0.690, 6.082e-7, 3.242e-4
0.685, 6.278e-7, 3.242e-4
0.680, 6.461e-7, 3.242e-4
0.675, 6.688e-7, 3.243e-4
0.670, 6.889e-7, 3.243e-4
0.665, 7.158e-7, 3.243e-4
0.660, 7.447e-7, 3.244e-4
0.655, 7.707e-7, 3.244e-4
0.650, 7.952e-7, 3.244e-4
0.645, 8.246e-7, 3.245e-4
0.640, 8.501e-7, 3.245e-4
0.635, 8.817e-7, 3.246e-4
0.630, 9.130e-7, 3.246e-4
0.625, 9.441e-7, 3.247e-4
0.620, 9.786e-7, 3.247e-4
0.615, 1.012e-6, 3.248e-4
0.610, 1.051e-6, 3.248e-4
0.605, 1.094e-6, 3.249e-4
0.600, 1.137e-6, 3.249e-4
0.595, 1.184e-6, 3.250e-4
0.590, 1.232e-6, 3.251e-4
0.585, 1.285e-6, 3.251e-4
0.580, 1.341e-6, 3.252e-4
0.575, 1.400e-6, 3.253e-4
0.570, 1.464e-6, 3.253e-4
0.565, 1.538e-6, 3.254e-4
0.560, 1.613e-6, 3.255e-4
0.555, 1.694e-6, 3.256e-4
0.550, 1.782e-6, 3.257e-4
0.545, 1.878e-6, 3.258e-4
0.540, 1.983e-6, 3.259e-4
0.535, 2.099e-6, 3.260e-4
0.530, 2.226e-6, 3.261e-4
0.525, 2.378e-6, 3.262e-4
0.520, 2.537e-6, 3.263e-4
0.515, 2.719e-6, 3.264e-4
0.510, 2.925e-6, 3.266e-4
0.505, 3.166e-6, 3.268e-4
0.500, 3.433e-6, 3.269e-4
0.495, 3.744e-6, 3.271e-4
0.490, 4.109e-6, 3.273e-4
0.485, 4.523e-6, 3.275e-4
0.480, 5.000e-6, 3.278e-4
0.475, 5.555e-6, 3.281e-4
0.470, 6.185e-6, 3.284e-4
0.465, 6.896e-6, 3.287e-4
0.460, 7.688e-6, 3.291e-4
0.455, 8.549e-6, 3.295e-4
0.450, 9.481e-6, 3.300e-4
0.445, 1.046e-5, 3.305e-4
0.440, 1.146e-5, 3.311e-4
0.435, 1.247e-5, 3.317e-4
0.430, 1.347e-5, 3.324e-4
0.425, 1.441e-5, 3.331e-4
0.420, 1.529e-5, 3.339e-4
0.415, 1.607e-5, 3.347e-4
0.410, 1.676e-5, 3.355e-4
0.405, 1.732e-5, 3.364e-4
0.400, 1.775e-5, 3.373e-4
0.395, 1.807e-5, 3.382e-4
0.390, 1.826e-5, 3.391e-4
0.385, 1.836e-5, 3.400e-4
0.380, 1.837e-5, 3.409e-4
0.375, 1.831e-5, 3.419e-4
0.370, 1.818e-5, 3.428e-4
0.365, 1.801e-5, 3.437e-4
0.360, 1.782e-5, 3.446e-4
0.355, 1.759e-5, 3.454e-4
0.350, 1.730e-5, 3.463e-4
0.345, 1.704e-5, 3.471e-4
0.340, 1.680e-5, 3.480e-4
0.335, 1.656e-5, 3.488e-4
0.330, 1.632e-5, 3.496e-4
0.325, 1.611e-5, 3.504e-4
0.320, 1.596e-5, 3.512e-4
0.315, 1.585e-5, 3.520e-4
0.310, 1.573e-5, 3.528e-4
0.305, 1.560e-5, 3.536e-4
0.300, 1.551e-5, 3.544e-4
0.295, 1.542e-5, 3.551e-4
0.290, 1.531e-5, 3.559e-4
0.285, 1.518e-5, 3.567e-4
0.280, 1.503e-5, 3.574e-4
0.275, 1.485e-5, 3.582e-4
0.270, 1.469e-5, 3.589e-4
0.265, 1.459e-5, 3.596e-4
0.260, 1.447e-5, 3.603e-4
0.255, 1.429e-5, 3.611e-4
0.250, 1.417e-5, 3.618e-4
0.245, 1.409e-5, 3.625e-4
0.240, 1.404e-5, 3.632e-4
0.235, 1.402e-5, 3.639e-4
0.230, 1.405e-5, 3.646e-4
0.225, 1.405e-5, 3.653e-4
0.220, 1.404e-5, 3.660e-4
0.215, 1.406e-5, 3.667e-4
0.210, 1.407e-5, 3.674e-4
0.205, 1.400e-5, 3.681e-4
0.200, 1.391e-5, 3.688e-4
0.195, 1.385e-5, 3.695e-4
0.190, 1.386e-5, 3.702e-4
0.185, 1.378e-5, 3.709e-4
0.180, 1.365e-5, 3.715e-4
0.175, 1.353e-5, 3.722e-4
0.170, 1.343e-5, 3.729e-4
0.165, 1.337e-5, 3.736e-4
0.160, 1.323e-5, 3.742e-4
0.155, 1.305e-5, 3.749e-4
0.150, 1.292e-5, 3.755e-4
0.145, 1.284e-5, 3.762e-4
0.140, 1.273e-5, 3.768e-4
0.135, 1.260e-5, 3.774e-4
0.130, 1.246e-5, 3.781e-4
0.125, 1.234e-5, 3.787e-4
0.120, 1.229e-5, 3.793e-4
0.115, 1.224e-5, 3.799e-4
0.110, 1.214e-5, 3.805e-4
0.105, 1.204e-5, 3.811e-4
0.100, 1.199e-5, 3.817e-4
0.095, 1.197e-5, 3.823e-4
0.090, 1.194e-5, 3.829e-4
0.085, 1.189e-5, 3.835e-4
0.080, 1.184e-5, 3.841e-4
0.075, 1.186e-5, 3.847e-4
0.070, 1.185e-5, 3.853e-4
0.065, 1.180e-5, 3.859e-4
0.060, 1.178e-5, 3.864e-4
0.055, 1.177e-5, 3.870e-4
0.050, 1.178e-5, 3.876e-4
0.045, 1.176e-5, 3.882e-4
0.040, 1.178e-5, 3.888e-4
0.035, 1.181e-5, 3.894e-4
0.030, 1.188e-5, 3.900e-4
0.025, 1.193e-5, 3.906e-4
0.020, 1.198e-5, 3.912e-4
0.015, 1.204e-5, 3.918e-4
0.010, 1.213e-5, 3.924e-4
0.005, 1.222e-5, 3.930e-4
0.000, 1.224e-5, 3.936e-4
-0.005, 1.230e-5, 3.942e-4
-0.010, 1.239e-5, 3.949e-4
-0.015, 1.246e-5, 3.955e-4
-0.020, 1.243e-5, 3.961e-4
-0.025, 1.240e-5, 3.967e-4
-0.030, 1.244e-5, 3.973e-4
-0.035, 1.249e-5, 3.980e-4
-0.040, 1.252e-5, 3.986e-4
-0.045, 1.253e-5, 3.992e-4
-0.050, 1.258e-5, 3.998e-4
-0.055, 1.268e-5, 4.005e-4
-0.060, 1.274e-5, 4.011e-4
-0.065, 1.278e-5, 4.018e-4
-0.070, 1.284e-5, 4.024e-4
-0.075, 1.290e-5, 4.030e-4
-0.080, 1.293e-5, 4.037e-4
-0.085, 1.293e-5, 4.043e-4
-0.090, 1.289e-5, 4.050e-4
-0.095, 1.286e-5, 4.056e-4
-0.100, 1.285e-5, 4.063e-4
-0.105, 1.280e-5, 4.069e-4
-0.110, 1.270e-5, 4.075e-4
-0.115, 1.260e-5, 4.082e-4
-0.120, 1.252e-5, 4.088e-4
-0.125, 1.248e-5, 4.094e-4
-0.130, 1.239e-5, 4.100e-4
-0.135, 1.227e-5, 4.107e-4
-0.140, 1.217e-5, 4.113e-4
-0.145, 1.211e-5, 4.119e-4
-0.150, 1.206e-5, 4.125e-4
-0.155, 1.202e-5, 4.131e-4
-0.160, 1.197e-5, 4.137e-4
-0.165, 1.194e-5, 4.143e-4
-0.170, 1.191e-5, 4.149e-4
-0.175, 1.192e-5, 4.155e-4
-0.180, 1.193e-5, 4.161e-4
-0.185, 1.194e-5, 4.167e-4
-0.190, 1.194e-5, 4.172e-4
-0.195, 1.199e-5, 4.178e-4
-0.200, 1.204e-5, 4.185e-4
-0.205, 1.204e-5, 4.191e-4
-0.210, 1.207e-5, 4.197e-4
-0.215, 1.207e-5, 4.203e-4
-0.220, 1.209e-5, 4.209e-4
-0.225, 1.210e-5, 4.215e-4
-0.230, 1.210e-5, 4.221e-4
-0.235, 1.210e-5, 4.227e-4
-0.240, 1.212e-5, 4.233e-4
-0.245, 1.215e-5, 4.239e-4
-0.250, 1.218e-5, 4.245e-4
-0.255, 1.222e-5, 4.251e-4
-0.260, 1.223e-5, 4.257e-4
-0.265, 1.225e-5, 4.263e-4
-0.270, 1.230e-5, 4.270e-4
-0.275, 1.236e-5, 4.276e-4
-0.280, 1.242e-5, 4.282e-4
-0.285, 1.250e-5, 4.288e-4
-0.290, 1.046e-5, 4.293e-4

Segment 6:
-0.285, 9.301e-6, 4.298e-4
-0.280, 9.050e-6, 4.303e-4
-0.275, 8.918e-6, 4.307e-4
-0.270, 8.873e-6, 4.311e-4
-0.265, 8.863e-6, 4.316e-4
-0.260, 8.829e-6, 4.320e-4
-0.255, 8.773e-6, 4.325e-4
-0.250, 8.777e-6, 4.329e-4
-0.245, 8.817e-6, 4.333e-4
-0.240, 8.877e-6, 4.338e-4
-0.235, 8.978e-6, 4.342e-4
-0.230, 9.114e-6, 4.347e-4
-0.225, 9.261e-6, 4.352e-4
-0.220, 9.360e-6, 4.356e-4
-0.215, 9.463e-6, 4.361e-4
-0.210, 9.578e-6, 4.366e-4
-0.205, 9.723e-6, 4.371e-4
-0.200, 9.801e-6, 4.376e-4
-0.195, 9.891e-6, 4.381e-4
-0.190, 9.991e-6, 4.386e-4
-0.185, 1.005e-5, 4.391e-4
-0.180, 1.011e-5, 4.396e-4
-0.175, 1.014e-5, 4.401e-4
-0.170, 1.013e-5, 4.406e-4
-0.165, 1.014e-5, 4.411e-4
-0.160, 1.019e-5, 4.416e-4
-0.155, 1.032e-5, 4.421e-4
-0.150, 1.052e-5, 4.426e-4
-0.145, 1.076e-5, 4.432e-4
-0.140, 1.096e-5, 4.437e-4
-0.135, 1.116e-5, 4.443e-4
-0.130, 1.131e-5, 4.448e-4
-0.125, 1.136e-5, 4.454e-4
-0.120, 1.139e-5, 4.460e-4
-0.115, 1.140e-5, 4.465e-4
-0.110, 1.136e-5, 4.471e-4
-0.105, 1.126e-5, 4.477e-4
-0.100, 1.113e-5, 4.482e-4
-0.095, 1.102e-5, 4.488e-4
-0.090, 1.090e-5, 4.493e-4
-0.085, 1.074e-5, 4.499e-4
-0.080, 1.056e-5, 4.504e-4
-0.075, 1.037e-5, 4.509e-4
-0.070, 1.026e-5, 4.514e-4
-0.065, 1.019e-5, 4.519e-4
-0.060, 1.015e-5, 4.524e-4
-0.055, 1.012e-5, 4.529e-4
-0.050, 1.020e-5, 4.535e-4
-0.045, 1.038e-5, 4.540e-4
-0.040, 1.059e-5, 4.545e-4
-0.035, 1.073e-5, 4.550e-4
-0.030, 1.079e-5, 4.556e-4
-0.025, 1.091e-5, 4.561e-4
-0.020, 1.102e-5, 4.567e-4
-0.015, 1.105e-5, 4.572e-4
-0.010, 1.108e-5, 4.578e-4
-0.005, 1.111e-5, 4.583e-4
-0.000, 1.108e-5, 4.589e-4
0.005, 1.105e-5, 4.594e-4
0.010, 1.102e-5, 4.600e-4
0.015, 1.098e-5, 4.605e-4
0.020, 1.090e-5, 4.611e-4
0.025, 1.082e-5, 4.616e-4
0.030, 1.078e-5, 4.622e-4
0.035, 1.072e-5, 4.627e-4
0.040, 1.062e-5, 4.632e-4
0.045, 1.054e-5, 4.638e-4
0.050, 1.048e-5, 4.643e-4
0.055, 1.044e-5, 4.648e-4
0.060, 1.039e-5, 4.653e-4
0.065, 1.035e-5, 4.659e-4
0.070, 1.038e-5, 4.664e-4
0.075, 1.044e-5, 4.669e-4
0.080, 1.044e-5, 4.674e-4
0.085, 1.047e-5, 4.679e-4
0.090, 1.054e-5, 4.685e-4
0.095, 1.065e-5, 4.690e-4
0.100, 1.073e-5, 4.695e-4
0.105, 1.077e-5, 4.701e-4
0.110, 1.084e-5, 4.706e-4
0.115, 1.099e-5, 4.712e-4
0.120, 1.115e-5, 4.717e-4
0.125, 1.124e-5, 4.723e-4
0.130, 1.127e-5, 4.728e-4
0.135, 1.139e-5, 4.734e-4
0.140, 1.148e-5, 4.740e-4
0.145, 1.151e-5, 4.746e-4
0.150, 1.153e-5, 4.751e-4
0.155, 1.157e-5, 4.757e-4
0.160, 1.162e-5, 4.763e-4
0.165, 1.170e-5, 4.769e-4
0.170, 1.173e-5, 4.775e-4
0.175, 1.171e-5, 4.781e-4
0.180, 1.174e-5, 4.786e-4
0.185, 1.180e-5, 4.792e-4
0.190, 1.187e-5, 4.798e-4
0.195, 1.190e-5, 4.804e-4
0.200, 1.194e-5, 4.810e-4
0.205, 1.203e-5, 4.816e-4
0.210, 1.207e-5, 4.822e-4
0.215, 1.210e-5, 4.828e-4
0.220, 1.215e-5, 4.834e-4
0.225, 1.223e-5, 4.841e-4
0.230, 1.228e-5, 4.847e-4
0.235, 1.229e-5, 4.853e-4
0.240, 1.230e-5, 4.859e-4
0.245, 1.233e-5, 4.865e-4
0.250, 1.236e-5, 4.871e-4
0.255, 1.236e-5, 4.877e-4
0.260, 1.236e-5, 4.884e-4
0.265, 1.236e-5, 4.890e-4
0.270, 1.233e-5, 4.896e-4
0.275, 1.225e-5, 4.902e-4
0.280, 1.219e-5, 4.908e-4
0.285, 1.212e-5, 4.914e-4
0.290, 1.203e-5, 4.920e-4
0.295, 1.196e-5, 4.926e-4
0.300, 1.182e-5, 4.932e-4
0.305, 1.165e-5, 4.938e-4
0.310, 1.153e-5, 4.944e-4
0.315, 1.142e-5, 4.949e-4
0.320, 1.134e-5, 4.955e-4
0.325, 1.125e-5, 4.961e-4
0.330, 1.114e-5, 4.966e-4
0.335, 1.102e-5, 4.972e-4
0.340, 1.097e-5, 4.977e-4
0.345, 1.093e-5, 4.983e-4
0.350, 1.087e-5, 4.988e-4
0.355, 1.080e-5, 4.994e-4
0.360, 1.071e-5, 4.999e-4
0.365, 1.064e-5, 5.004e-4
0.370, 1.055e-5, 5.010e-4
0.375, 1.045e-5, 5.015e-4
0.380, 1.033e-5, 5.020e-4
0.385, 1.020e-5, 5.025e-4
0.390, 1.004e-5, 5.030e-4
0.395, 9.868e-6, 5.035e-4
0.400, 9.682e-6, 5.040e-4
0.405, 9.486e-6, 5.045e-4
0.410, 9.285e-6, 5.049e-4
0.415, 9.078e-6, 5.054e-4
0.420, 8.864e-6, 5.058e-4
0.425, 8.641e-6, 5.063e-4
0.430, 8.397e-6, 5.067e-4
0.435, 8.160e-6, 5.071e-4
0.440, 7.907e-6, 5.075e-4
0.445, 7.639e-6, 5.079e-4
0.450, 7.365e-6, 5.082e-4
0.455, 7.076e-6, 5.086e-4
0.460, 6.757e-6, 5.089e-4
0.465, 6.443e-6, 5.092e-4
0.470, 6.115e-6, 5.095e-4
0.475, 5.781e-6, 5.098e-4
0.480, 5.424e-6, 5.101e-4
0.485, 5.063e-6, 5.104e-4
0.490, 4.698e-6, 5.106e-4
0.495, 4.324e-6, 5.108e-4
0.500, 3.939e-6, 5.110e-4
0.505, 3.549e-6, 5.112e-4
0.510, 3.164e-6, 5.113e-4
0.515, 2.779e-6, 5.115e-4
0.520, 2.406e-6, 5.116e-4
0.525, 2.041e-6, 5.117e-4
0.530, 1.693e-6, 5.118e-4
0.535, 1.359e-6, 5.119e-4
0.540, 1.043e-6, 5.119e-4
0.545, 7.455e-7, 5.119e-4
0.550, 4.663e-7, 5.120e-4
0.555, 2.122e-7, 5.120e-4
0.560, -2.194e-8, 5.120e-4
0.565, -2.387e-7, 5.120e-4
0.570, -4.357e-7, 5.119e-4
0.575, -6.161e-7, 5.119e-4
0.580, -7.812e-7, 5.119e-4
0.585, -9.380e-7, 5.118e-4
0.590, -1.069e-6, 5.118e-4
0.595, -1.193e-6, 5.117e-4
0.600, -1.303e-6, 5.117e-4
0.605, -1.400e-6, 5.116e-4
0.610, -1.484e-6, 5.115e-4
0.615, -1.549e-6, 5.114e-4
0.620, -1.623e-6, 5.113e-4
0.625, -1.683e-6, 5.113e-4
0.630, -1.736e-6, 5.112e-4
0.635, -1.782e-6, 5.111e-4
0.640, -1.822e-6, 5.110e-4
0.645, -1.859e-6, 5.109e-4
0.650, -1.891e-6, 5.108e-4
0.655, -1.921e-6, 5.107e-4
0.660, -1.945e-6, 5.106e-4
0.665, -1.970e-6, 5.105e-4
0.670, -1.986e-6, 5.104e-4
0.675, -2.005e-6, 5.103e-4
0.680, -2.021e-6, 5.102e-4
0.685, -2.031e-6, 5.101e-4
0.690, -2.044e-6, 5.100e-4
0.695, -2.054e-6, 5.099e-4
0.700, -2.065e-6, 5.098e-4
0.705, -2.076e-6, 5.097e-4
0.710, -2.084e-6, 5.096e-4
0.715, -2.097e-6, 5.095e-4
0.720, -2.104e-6, 5.094e-4
0.725, -2.111e-6, 5.093e-4
0.730, -2.119e-6, 5.092e-4
0.735, -2.123e-6, 5.091e-4
0.740, -2.126e-6, 5.090e-4
0.745, -2.131e-6, 5.089e-4
0.750, -2.136e-6, 5.088e-4
0.755, -2.141e-6, 5.086e-4
0.760, -2.145e-6, 5.085e-4
0.765, -2.151e-6, 5.084e-4
0.770, -2.155e-6, 5.083e-4
0.775, -2.160e-6, 5.082e-4
0.780, -2.165e-6, 5.081e-4
0.785, -2.171e-6, 5.080e-4
0.790, -2.175e-6, 5.079e-4
0.795, -2.181e-6, 5.078e-4
0.800, -2.188e-6, 5.077e-4
0.805, -2.195e-6, 5.076e-4
0.810, -2.201e-6, 5.075e-4
0.815, -2.209e-6, 5.073e-4
0.820, -2.216e-6, 5.072e-4
0.825, -2.223e-6, 5.071e-4
0.830, -2.232e-6, 5.070e-4
0.835, -2.241e-6, 5.069e-4
0.840, -2.249e-6, 5.068e-4
0.845, -2.259e-6, 5.067e-4
0.850, -2.269e-6, 5.066e-4
0.855, -2.278e-6, 5.064e-4
0.860, -2.291e-6, 5.063e-4
0.865, -2.300e-6, 5.062e-4
0.870, -2.314e-6, 5.061e-4
0.875, -2.323e-6, 5.060e-4
0.880, -2.334e-6, 5.059e-4
0.885, -2.345e-6, 5.057e-4
0.890, -2.357e-6, 5.056e-4
0.895, -2.368e-6, 5.055e-4
0.900, -2.379e-6, 5.054e-4
0.905, -2.397e-6, 5.053e-4
0.910, -2.412e-6, 5.052e-4
0.915, -2.422e-6, 5.050e-4
0.920, -2.437e-6, 5.049e-4
0.925, -2.446e-6, 5.048e-4
0.930, -2.459e-6, 5.047e-4
0.935, -2.470e-6, 5.045e-4
0.940, -2.484e-6, 5.044e-4
0.945, -2.495e-6, 5.043e-4
0.950, -2.508e-6, 5.042e-4
0.955, -2.516e-6, 5.040e-4
0.960, -2.527e-6, 5.039e-4
0.965, -2.538e-6, 5.038e-4
0.970, -2.550e-6, 5.037e-4
0.975, -2.561e-6, 5.035e-4
0.980, -2.571e-6, 5.034e-4
0.985, -2.583e-6, 5.033e-4
0.990, -2.593e-6, 5.031e-4
0.995, -2.604e-6, 5.030e-4
1.000, -2.612e-6, 5.029e-4
1.005, -2.622e-6, 5.028e-4
1.010, -2.633e-6, 5.026e-4
1.015, -2.640e-6, 5.025e-4
1.020, -2.649e-6, 5.024e-4
1.025, -2.654e-6, 5.022e-4
1.030, -2.662e-6, 5.021e-4
1.035, -2.674e-6, 5.020e-4
1.040, -2.683e-6, 5.018e-4
1.045, -2.692e-6, 5.017e-4
1.050, -2.699e-6, 5.016e-4
1.055, -2.707e-6, 5.014e-4
1.060, -2.712e-6, 5.013e-4
1.065, -2.721e-6, 5.011e-4
1.070, -2.730e-6, 5.010e-4
1.075, -2.737e-6, 5.009e-4
1.080, -2.745e-6, 5.007e-4
1.085, -2.755e-6, 5.006e-4
1.090, -2.763e-6, 5.005e-4
1.095, -2.772e-6, 5.003e-4
1.100, -2.454e-6, 5.002e-4
