Nov. 15, 2023   13:21:22
Linear Sweep Voltammetry
File: c:\users\pku\desktop\zqq\lsvo2.txt
Data Source:  Experiment
Instrument Model:  CHI600B
Header: 
Note: 

Init E (V) = -0.287
Final E (V) = 1.1
Scan Rate (V/s) = 0.01
Sample Interval (V) = 0.001
Quiet Time (sec) = 2
Sensitivity (A/V) = 5e-6

Potential/V, Current/A, Charge/C

Segment 1:
-0.286, 1.154e-5, 1.154e-6
-0.285, 1.130e-5, 2.283e-6
-0.284, 1.114e-5, 3.398e-6
-0.283, 1.105e-5, 4.502e-6
-0.282, 1.099e-5, 5.602e-6
-0.281, 1.096e-5, 6.698e-6
-0.280, 1.092e-5, 7.790e-6
-0.279, 1.088e-5, 8.877e-6
-0.278, 1.078e-5, 9.955e-6
-0.277, 1.069e-5, 1.102e-5
-0.276, 1.059e-5, 1.208e-5
-0.275, 1.049e-5, 1.313e-5
-0.274, 1.043e-5, 1.417e-5
-0.273, 1.040e-5, 1.521e-5
-0.272, 1.046e-5, 1.626e-5
-0.271, 1.060e-5, 1.732e-5
-0.270, 1.072e-5, 1.839e-5
-0.269, 1.078e-5, 1.947e-5
-0.268, 1.076e-5, 2.055e-5
-0.267, 1.081e-5, 2.163e-5
-0.266, 1.091e-5, 2.272e-5
-0.265, 1.097e-5, 2.382e-5
-0.264, 1.093e-5, 2.491e-5
-0.263, 1.084e-5, 2.599e-5
-0.262, 1.074e-5, 2.707e-5
-0.261, 1.068e-5, 2.813e-5
-0.260, 1.061e-5, 2.920e-5
-0.259, 1.060e-5, 3.026e-5
-0.258, 1.059e-5, 3.131e-5
-0.257, 1.054e-5, 3.237e-5
-0.256, 1.051e-5, 3.342e-5
-0.255, 1.043e-5, 3.446e-5
-0.254, 1.035e-5, 3.550e-5
-0.253, 1.031e-5, 3.653e-5
-0.252, 1.030e-5, 3.756e-5
-0.251, 1.030e-5, 3.859e-5
-0.250, 1.029e-5, 3.962e-5
-0.249, 1.031e-5, 4.065e-5
-0.248, 1.034e-5, 4.168e-5
-0.247, 1.048e-5, 4.273e-5
-0.246, 1.063e-5, 4.379e-5
-0.245, 1.074e-5, 4.487e-5
-0.244, 1.080e-5, 4.595e-5
-0.243, 1.081e-5, 4.703e-5
-0.242, 1.081e-5, 4.811e-5
-0.241, 1.079e-5, 4.919e-5
-0.240, 1.082e-5, 5.027e-5
-0.239, 1.080e-5, 5.135e-5
-0.238, 1.072e-5, 5.242e-5
-0.237, 1.059e-5, 5.348e-5
-0.236, 1.045e-5, 5.453e-5
-0.235, 1.034e-5, 5.556e-5
-0.234, 1.022e-5, 5.658e-5
-0.233, 1.010e-5, 5.759e-5
-0.232, 9.999e-6, 5.859e-5
-0.231, 9.912e-6, 5.958e-5
-0.230, 9.867e-6, 6.057e-5
-0.229, 9.809e-6, 6.155e-5
-0.228, 9.763e-6, 6.253e-5
-0.227, 9.731e-6, 6.350e-5
-0.226, 9.665e-6, 6.447e-5
-0.225, 9.625e-6, 6.543e-5
-0.224, 9.522e-6, 6.638e-5
-0.223, 9.460e-6, 6.733e-5
-0.222, 9.405e-6, 6.827e-5
-0.221, 9.445e-6, 6.921e-5
-0.220, 9.556e-6, 7.017e-5
-0.219, 9.689e-6, 7.114e-5
-0.218, 9.937e-6, 7.213e-5
-0.217, 1.014e-5, 7.315e-5
-0.216, 1.030e-5, 7.418e-5
-0.215, 1.038e-5, 7.521e-5
-0.214, 1.036e-5, 7.625e-5
-0.213, 1.037e-5, 7.729e-5
-0.212, 1.030e-5, 7.832e-5
-0.211, 1.022e-5, 7.934e-5
-0.210, 1.012e-5, 8.035e-5
-0.209, 1.007e-5, 8.136e-5
-0.208, 1.002e-5, 8.236e-5
-0.207, 1.002e-5, 8.336e-5
-0.206, 1.007e-5, 8.437e-5
-0.205, 1.011e-5, 8.538e-5
-0.204, 1.015e-5, 8.640e-5
-0.203, 1.014e-5, 8.741e-5
-0.202, 1.008e-5, 8.842e-5
-0.201, 9.983e-6, 8.942e-5
-0.200, 9.886e-6, 9.040e-5
-0.199, 9.778e-6, 9.138e-5
-0.198, 9.663e-6, 9.235e-5
-0.197, 9.565e-6, 9.331e-5
-0.196, 9.473e-6, 9.425e-5
-0.195, 9.396e-6, 9.519e-5
-0.194, 9.323e-6, 9.612e-5
-0.193, 9.274e-6, 9.705e-5
-0.192, 9.254e-6, 9.798e-5
-0.191, 9.250e-6, 9.890e-5
-0.190, 9.271e-6, 9.983e-5
-0.189, 9.303e-6, 1.008e-4
-0.188, 9.345e-6, 1.017e-4
-0.187, 9.316e-6, 1.026e-4
-0.186, 9.334e-6, 1.036e-4
-0.185, 9.303e-6, 1.045e-4
-0.184, 9.343e-6, 1.054e-4
-0.183, 9.403e-6, 1.064e-4
-0.182, 9.464e-6, 1.073e-4
-0.181, 9.566e-6, 1.083e-4
-0.180, 9.642e-6, 1.092e-4
-0.179, 9.735e-6, 1.102e-4
-0.178, 9.779e-6, 1.112e-4
-0.177, 9.753e-6, 1.122e-4
-0.176, 9.693e-6, 1.131e-4
-0.175, 9.585e-6, 1.141e-4
-0.174, 9.467e-6, 1.150e-4
-0.173, 9.390e-6, 1.160e-4
-0.172, 9.308e-6, 1.169e-4
-0.171, 9.252e-6, 1.178e-4
-0.170, 9.271e-6, 1.188e-4
-0.169, 9.343e-6, 1.197e-4
-0.168, 9.531e-6, 1.206e-4
-0.167, 9.778e-6, 1.216e-4
-0.166, 1.001e-5, 1.226e-4
-0.165, 1.022e-5, 1.236e-4
-0.164, 1.033e-5, 1.247e-4
-0.163, 1.040e-5, 1.257e-4
-0.162, 1.043e-5, 1.268e-4
-0.161, 1.048e-5, 1.278e-4
-0.160, 1.044e-5, 1.289e-4
-0.159, 1.045e-5, 1.299e-4
-0.158, 1.048e-5, 1.309e-4
-0.157, 1.054e-5, 1.320e-4
-0.156, 1.064e-5, 1.331e-4
-0.155, 1.070e-5, 1.341e-4
-0.154, 1.070e-5, 1.352e-4
-0.153, 1.070e-5, 1.363e-4
-0.152, 1.063e-5, 1.373e-4
-0.151, 1.056e-5, 1.384e-4
-0.150, 1.048e-5, 1.394e-4
-0.149, 1.040e-5, 1.405e-4
-0.148, 1.035e-5, 1.415e-4
-0.147, 1.025e-5, 1.425e-4
-0.146, 1.017e-5, 1.436e-4
-0.145, 1.016e-5, 1.446e-4
-0.144, 1.008e-5, 1.456e-4
-0.143, 1.016e-5, 1.466e-4
-0.142, 1.018e-5, 1.476e-4
-0.141, 1.026e-5, 1.486e-4
-0.140, 1.028e-5, 1.497e-4
-0.139, 1.027e-5, 1.507e-4
-0.138, 1.019e-5, 1.517e-4
-0.137, 1.009e-5, 1.527e-4
-0.136, 9.997e-6, 1.537e-4
-0.135, 9.900e-6, 1.547e-4
-0.134, 9.818e-6, 1.557e-4
-0.133, 9.721e-6, 1.567e-4
-0.132, 9.596e-6, 1.576e-4
-0.131, 9.487e-6, 1.586e-4
-0.130, 9.410e-6, 1.595e-4
-0.129, 9.362e-6, 1.605e-4
-0.128, 9.334e-6, 1.614e-4
-0.127, 9.353e-6, 1.623e-4
-0.126, 9.323e-6, 1.633e-4
-0.125, 9.357e-6, 1.642e-4
-0.124, 9.348e-6, 1.651e-4
-0.123, 9.317e-6, 1.661e-4
-0.122, 9.282e-6, 1.670e-4
-0.121, 9.223e-6, 1.679e-4
-0.120, 9.185e-6, 1.688e-4
-0.119, 9.143e-6, 1.697e-4
-0.118, 9.127e-6, 1.707e-4
-0.117, 9.081e-6, 1.716e-4
-0.116, 9.097e-6, 1.725e-4
-0.115, 9.067e-6, 1.734e-4
-0.114, 9.113e-6, 1.743e-4
-0.113, 9.142e-6, 1.752e-4
-0.112, 9.138e-6, 1.761e-4
-0.111, 9.197e-6, 1.770e-4
-0.110, 9.172e-6, 1.780e-4
-0.109, 9.174e-6, 1.789e-4
-0.108, 9.162e-6, 1.798e-4
-0.107, 9.167e-6, 1.807e-4
-0.106, 9.248e-6, 1.816e-4
-0.105, 9.489e-6, 1.826e-4
-0.104, 9.763e-6, 1.836e-4
-0.103, 9.930e-6, 1.845e-4
-0.102, 1.034e-5, 1.856e-4
-0.101, 1.036e-5, 1.866e-4
-0.100, 1.050e-5, 1.877e-4
-0.099, 1.053e-5, 1.887e-4
-0.098, 1.064e-5, 1.898e-4
-0.097, 1.095e-5, 1.909e-4
-0.096, 1.123e-5, 1.920e-4
-0.095, 1.148e-5, 1.931e-4
-0.094, 1.153e-5, 1.943e-4
-0.093, 1.138e-5, 1.954e-4
-0.092, 1.128e-5, 1.966e-4
-0.091, 1.109e-5, 1.977e-4
-0.090, 1.099e-5, 1.988e-4
-0.089, 1.089e-5, 1.999e-4
-0.088, 1.078e-5, 2.009e-4
-0.087, 1.071e-5, 2.020e-4
-0.086, 1.062e-5, 2.031e-4
-0.085, 1.053e-5, 2.041e-4
-0.084, 1.048e-5, 2.052e-4
-0.083, 1.043e-5, 2.062e-4
-0.082, 1.039e-5, 2.073e-4
-0.081, 1.037e-5, 2.083e-4
-0.080, 1.035e-5, 2.093e-4
-0.079, 1.032e-5, 2.104e-4
-0.078, 1.032e-5, 2.114e-4
-0.077, 1.037e-5, 2.124e-4
-0.076, 1.043e-5, 2.135e-4
-0.075, 1.046e-5, 2.145e-4
-0.074, 1.045e-5, 2.156e-4
-0.073, 1.042e-5, 2.166e-4
-0.072, 1.039e-5, 2.176e-4
-0.071, 1.040e-5, 2.187e-4
-0.070, 1.035e-5, 2.197e-4
-0.069, 1.031e-5, 2.208e-4
-0.068, 1.023e-5, 2.218e-4
-0.067, 1.007e-5, 2.228e-4
-0.066, 9.937e-6, 2.238e-4
-0.065, 9.828e-6, 2.248e-4
-0.064, 9.729e-6, 2.257e-4
-0.063, 9.691e-6, 2.267e-4
-0.062, 9.694e-6, 2.277e-4
-0.061, 9.702e-6, 2.286e-4
-0.060, 9.770e-6, 2.296e-4
-0.059, 9.822e-6, 2.306e-4
-0.058, 9.739e-6, 2.316e-4
-0.057, 9.750e-6, 2.326e-4
-0.056, 9.689e-6, 2.335e-4
-0.055, 9.708e-6, 2.345e-4
-0.054, 9.717e-6, 2.355e-4
-0.053, 9.720e-6, 2.364e-4
-0.052, 9.755e-6, 2.374e-4
-0.051, 9.743e-6, 2.384e-4
-0.050, 9.753e-6, 2.394e-4
-0.049, 9.749e-6, 2.403e-4
-0.048, 9.793e-6, 2.413e-4
-0.047, 9.865e-6, 2.423e-4
-0.046, 9.997e-6, 2.433e-4
-0.045, 1.021e-5, 2.443e-4
-0.044, 1.022e-5, 2.453e-4
-0.043, 1.037e-5, 2.464e-4
-0.042, 1.050e-5, 2.474e-4
-0.041, 1.059e-5, 2.485e-4
-0.040, 1.069e-5, 2.496e-4
-0.039, 1.065e-5, 2.506e-4
-0.038, 1.070e-5, 2.517e-4
-0.037, 1.065e-5, 2.528e-4
-0.036, 1.064e-5, 2.538e-4
-0.035, 1.067e-5, 2.549e-4
-0.034, 1.067e-5, 2.560e-4
-0.033, 1.069e-5, 2.570e-4
-0.032, 1.067e-5, 2.581e-4
-0.031, 1.071e-5, 2.592e-4
-0.030, 1.072e-5, 2.602e-4
-0.029, 1.085e-5, 2.613e-4
-0.028, 1.090e-5, 2.624e-4
-0.027, 1.093e-5, 2.635e-4
-0.026, 1.092e-5, 2.646e-4
-0.025, 1.086e-5, 2.657e-4
-0.024, 1.084e-5, 2.668e-4
-0.023, 1.079e-5, 2.678e-4
-0.022, 1.077e-5, 2.689e-4
-0.021, 1.080e-5, 2.700e-4
-0.020, 1.085e-5, 2.711e-4
-0.019, 1.092e-5, 2.722e-4
-0.018, 1.094e-5, 2.733e-4
-0.017, 1.100e-5, 2.744e-4
-0.016, 1.100e-5, 2.755e-4
-0.015, 1.097e-5, 2.766e-4
-0.014, 1.090e-5, 2.777e-4
-0.013, 1.078e-5, 2.787e-4
-0.012, 1.066e-5, 2.798e-4
-0.011, 1.052e-5, 2.809e-4
-0.010, 1.039e-5, 2.819e-4
-0.009, 1.027e-5, 2.829e-4
-0.008, 1.017e-5, 2.839e-4
-0.007, 1.008e-5, 2.849e-4
-0.006, 9.981e-6, 2.859e-4
-0.005, 9.889e-6, 2.869e-4
-0.004, 9.791e-6, 2.879e-4
-0.003, 9.728e-6, 2.889e-4
-0.002, 9.705e-6, 2.899e-4
-0.001, 9.743e-6, 2.908e-4
-0.000, 9.839e-6, 2.918e-4
0.001, 9.929e-6, 2.928e-4
0.002, 1.006e-5, 2.938e-4
0.003, 1.020e-5, 2.948e-4
0.004, 1.035e-5, 2.959e-4
0.005, 1.047e-5, 2.969e-4
0.006, 1.053e-5, 2.980e-4
0.007, 1.050e-5, 2.990e-4
0.008, 1.046e-5, 3.001e-4
0.009, 1.046e-5, 3.011e-4
0.010, 1.039e-5, 3.021e-4
0.011, 1.037e-5, 3.032e-4
0.012, 1.033e-5, 3.042e-4
0.013, 1.027e-5, 3.052e-4
0.014, 1.027e-5, 3.063e-4
0.015, 1.029e-5, 3.073e-4
0.016, 1.037e-5, 3.083e-4
0.017, 1.044e-5, 3.094e-4
0.018, 1.068e-5, 3.104e-4
0.019, 1.111e-5, 3.116e-4
0.020, 1.155e-5, 3.127e-4
0.021, 1.195e-5, 3.139e-4
0.022, 1.212e-5, 3.151e-4
0.023, 1.211e-5, 3.163e-4
0.024, 1.199e-5, 3.175e-4
0.025, 1.174e-5, 3.187e-4
0.026, 1.152e-5, 3.199e-4
0.027, 1.136e-5, 3.210e-4
0.028, 1.125e-5, 3.221e-4
0.029, 1.125e-5, 3.232e-4
0.030, 1.125e-5, 3.244e-4
0.031, 1.130e-5, 3.255e-4
0.032, 1.130e-5, 3.266e-4
0.033, 1.126e-5, 3.278e-4
0.034, 1.115e-5, 3.289e-4
0.035, 1.099e-5, 3.300e-4
0.036, 1.081e-5, 3.310e-4
0.037, 1.058e-5, 3.321e-4
0.038, 1.039e-5, 3.331e-4
0.039, 1.020e-5, 3.342e-4
0.040, 1.002e-5, 3.352e-4
0.041, 9.892e-6, 3.362e-4
0.042, 9.791e-6, 3.371e-4
0.043, 9.773e-6, 3.381e-4
0.044, 9.837e-6, 3.391e-4
0.045, 1.007e-5, 3.401e-4
0.046, 1.036e-5, 3.411e-4
0.047, 1.069e-5, 3.422e-4
0.048, 1.089e-5, 3.433e-4
0.049, 1.106e-5, 3.444e-4
0.050, 1.096e-5, 3.455e-4
0.051, 1.123e-5, 3.466e-4
0.052, 1.133e-5, 3.478e-4
0.053, 1.150e-5, 3.489e-4
0.054, 1.166e-5, 3.501e-4
0.055, 1.168e-5, 3.512e-4
0.056, 1.182e-5, 3.524e-4
0.057, 1.189e-5, 3.536e-4
0.058, 1.193e-5, 3.548e-4
0.059, 1.193e-5, 3.560e-4
0.060, 1.179e-5, 3.572e-4
0.061, 1.162e-5, 3.583e-4
0.062, 1.144e-5, 3.595e-4
0.063, 1.130e-5, 3.606e-4
0.064, 1.118e-5, 3.617e-4
0.065, 1.107e-5, 3.628e-4
0.066, 1.101e-5, 3.639e-4
0.067, 1.098e-5, 3.650e-4
0.068, 1.095e-5, 3.661e-4
0.069, 1.099e-5, 3.672e-4
0.070, 1.099e-5, 3.683e-4
0.071, 1.091e-5, 3.694e-4
0.072, 1.079e-5, 3.705e-4
0.073, 1.063e-5, 3.716e-4
0.074, 1.048e-5, 3.726e-4
0.075, 1.036e-5, 3.736e-4
0.076, 1.024e-5, 3.747e-4
0.077, 1.015e-5, 3.757e-4
0.078, 1.004e-5, 3.767e-4
0.079, 9.954e-6, 3.777e-4
0.080, 9.874e-6, 3.787e-4
0.081, 9.823e-6, 3.797e-4
0.082, 9.768e-6, 3.806e-4
0.083, 9.691e-6, 3.816e-4
0.084, 9.611e-6, 3.826e-4
0.085, 9.514e-6, 3.835e-4
0.086, 9.421e-6, 3.845e-4
0.087, 9.328e-6, 3.854e-4
0.088, 9.246e-6, 3.863e-4
0.089, 9.221e-6, 3.872e-4
0.090, 9.236e-6, 3.882e-4
0.091, 9.277e-6, 3.891e-4
0.092, 9.391e-6, 3.900e-4
0.093, 9.438e-6, 3.910e-4
0.094, 9.517e-6, 3.919e-4
0.095, 9.570e-6, 3.929e-4
0.096, 9.571e-6, 3.938e-4
0.097, 9.547e-6, 3.948e-4
0.098, 9.495e-6, 3.957e-4
0.099, 9.456e-6, 3.967e-4
0.100, 9.420e-6, 3.976e-4
0.101, 9.407e-6, 3.986e-4
0.102, 9.401e-6, 3.995e-4
0.103, 9.376e-6, 4.004e-4
0.104, 9.363e-6, 4.014e-4
0.105, 9.337e-6, 4.023e-4
0.106, 9.273e-6, 4.032e-4
0.107, 9.189e-6, 4.042e-4
0.108, 9.111e-6, 4.051e-4
0.109, 9.025e-6, 4.060e-4
0.110, 8.956e-6, 4.069e-4
0.111, 8.889e-6, 4.078e-4
0.112, 8.832e-6, 4.086e-4
0.113, 8.777e-6, 4.095e-4
0.114, 8.729e-6, 4.104e-4
0.115, 8.704e-6, 4.113e-4
0.116, 8.685e-6, 4.121e-4
0.117, 8.660e-6, 4.130e-4
0.118, 8.633e-6, 4.139e-4
0.119, 8.603e-6, 4.147e-4
0.120, 8.592e-6, 4.156e-4
0.121, 8.577e-6, 4.164e-4
0.122, 8.576e-6, 4.173e-4
0.123, 8.604e-6, 4.182e-4
0.124, 8.660e-6, 4.190e-4
0.125, 8.813e-6, 4.199e-4
0.126, 9.003e-6, 4.208e-4
0.127, 9.130e-6, 4.217e-4
0.128, 9.402e-6, 4.227e-4
0.129, 9.564e-6, 4.236e-4
0.130, 9.736e-6, 4.246e-4
0.131, 9.907e-6, 4.256e-4
0.132, 9.997e-6, 4.266e-4
0.133, 1.016e-5, 4.276e-4
0.134, 1.019e-5, 4.286e-4
0.135, 1.020e-5, 4.296e-4
0.136, 1.019e-5, 4.306e-4
0.137, 1.019e-5, 4.317e-4
0.138, 1.023e-5, 4.327e-4
0.139, 1.020e-5, 4.337e-4
0.140, 1.013e-5, 4.347e-4
0.141, 9.992e-6, 4.357e-4
0.142, 9.869e-6, 4.367e-4
0.143, 9.781e-6, 4.377e-4
0.144, 9.729e-6, 4.387e-4
0.145, 9.699e-6, 4.396e-4
0.146, 9.683e-6, 4.406e-4
0.147, 9.635e-6, 4.416e-4
0.148, 9.591e-6, 4.425e-4
0.149, 9.566e-6, 4.435e-4
0.150, 9.583e-6, 4.444e-4
0.151, 9.635e-6, 4.454e-4
0.152, 9.703e-6, 4.464e-4
0.153, 9.786e-6, 4.473e-4
0.154, 9.882e-6, 4.483e-4
0.155, 1.002e-5, 4.493e-4
0.156, 1.013e-5, 4.504e-4
0.157, 1.023e-5, 4.514e-4
0.158, 1.025e-5, 4.524e-4
0.159, 1.023e-5, 4.534e-4
0.160, 1.018e-5, 4.544e-4
0.161, 1.009e-5, 4.555e-4
0.162, 1.003e-5, 4.565e-4
0.163, 9.947e-6, 4.574e-4
0.164, 9.883e-6, 4.584e-4
0.165, 9.818e-6, 4.594e-4
0.166, 9.751e-6, 4.604e-4
0.167, 9.704e-6, 4.614e-4
0.168, 9.674e-6, 4.623e-4
0.169, 9.650e-6, 4.633e-4
0.170, 9.676e-6, 4.643e-4
0.171, 9.754e-6, 4.652e-4
0.172, 9.844e-6, 4.662e-4
0.173, 9.984e-6, 4.672e-4
0.174, 1.006e-5, 4.682e-4
0.175, 1.013e-5, 4.692e-4
0.176, 1.013e-5, 4.703e-4
0.177, 1.010e-5, 4.713e-4
0.178, 1.006e-5, 4.723e-4
0.179, 1.009e-5, 4.733e-4
0.180, 1.006e-5, 4.743e-4
0.181, 1.006e-5, 4.753e-4
0.182, 1.012e-5, 4.763e-4
0.183, 1.008e-5, 4.773e-4
0.184, 1.008e-5, 4.783e-4
0.185, 1.000e-5, 4.793e-4
0.186, 9.950e-6, 4.803e-4
0.187, 9.877e-6, 4.813e-4
0.188, 9.759e-6, 4.823e-4
0.189, 9.649e-6, 4.832e-4
0.190, 9.522e-6, 4.842e-4
0.191, 9.410e-6, 4.851e-4
0.192, 9.330e-6, 4.861e-4
0.193, 9.288e-6, 4.870e-4
0.194, 9.309e-6, 4.879e-4
0.195, 9.373e-6, 4.889e-4
0.196, 9.502e-6, 4.898e-4
0.197, 9.628e-6, 4.908e-4
0.198, 9.781e-6, 4.918e-4
0.199, 9.758e-6, 4.927e-4
0.200, 9.709e-6, 4.937e-4
0.201, 9.567e-6, 4.947e-4
0.202, 9.439e-6, 4.956e-4
0.203, 9.332e-6, 4.965e-4
0.204, 9.256e-6, 4.975e-4
0.205, 9.215e-6, 4.984e-4
0.206, 9.159e-6, 4.993e-4
0.207, 9.133e-6, 5.002e-4
0.208, 9.071e-6, 5.011e-4
0.209, 9.018e-6, 5.020e-4
0.210, 8.945e-6, 5.029e-4
0.211, 8.858e-6, 5.038e-4
0.212, 8.805e-6, 5.047e-4
0.213, 8.750e-6, 5.056e-4
0.214, 8.745e-6, 5.064e-4
0.215, 8.789e-6, 5.073e-4
0.216, 8.873e-6, 5.082e-4
0.217, 8.968e-6, 5.091e-4
0.218, 8.993e-6, 5.100e-4
0.219, 8.974e-6, 5.109e-4
0.220, 8.909e-6, 5.118e-4
0.221, 8.849e-6, 5.127e-4
0.222, 8.802e-6, 5.135e-4
0.223, 8.786e-6, 5.144e-4
0.224, 8.791e-6, 5.153e-4
0.225, 8.814e-6, 5.162e-4
0.226, 8.859e-6, 5.171e-4
0.227, 8.881e-6, 5.180e-4
0.228, 8.888e-6, 5.189e-4
0.229, 8.897e-6, 5.197e-4
0.230, 8.833e-6, 5.206e-4
0.231, 8.800e-6, 5.215e-4
0.232, 8.744e-6, 5.224e-4
0.233, 8.701e-6, 5.232e-4
0.234, 8.674e-6, 5.241e-4
0.235, 8.635e-6, 5.250e-4
0.236, 8.633e-6, 5.258e-4
0.237, 8.659e-6, 5.267e-4
0.238, 8.699e-6, 5.276e-4
0.239, 8.742e-6, 5.285e-4
0.240, 8.761e-6, 5.293e-4
0.241, 8.791e-6, 5.302e-4
0.242, 8.803e-6, 5.311e-4
0.243, 8.846e-6, 5.320e-4
0.244, 8.884e-6, 5.329e-4
0.245, 8.920e-6, 5.338e-4
0.246, 8.956e-6, 5.346e-4
0.247, 9.001e-6, 5.355e-4
0.248, 9.002e-6, 5.364e-4
0.249, 8.958e-6, 5.373e-4
0.250, 8.878e-6, 5.382e-4
0.251, 8.755e-6, 5.391e-4
0.252, 8.707e-6, 5.400e-4
0.253, 8.656e-6, 5.408e-4
0.254, 8.661e-6, 5.417e-4
0.255, 8.662e-6, 5.426e-4
0.256, 8.692e-6, 5.434e-4
0.257, 8.703e-6, 5.443e-4
0.258, 8.684e-6, 5.452e-4
0.259, 8.649e-6, 5.460e-4
0.260, 8.582e-6, 5.469e-4
0.261, 8.504e-6, 5.478e-4
0.262, 8.442e-6, 5.486e-4
0.263, 8.384e-6, 5.494e-4
0.264, 8.321e-6, 5.503e-4
0.265, 8.270e-6, 5.511e-4
0.266, 8.208e-6, 5.519e-4
0.267, 8.160e-6, 5.527e-4
0.268, 8.121e-6, 5.535e-4
0.269, 8.125e-6, 5.544e-4
0.270, 8.182e-6, 5.552e-4
0.271, 8.272e-6, 5.560e-4
0.272, 8.383e-6, 5.568e-4
0.273, 8.463e-6, 5.577e-4
0.274, 8.567e-6, 5.585e-4
0.275, 8.673e-6, 5.594e-4
0.276, 8.830e-6, 5.603e-4
0.277, 8.972e-6, 5.612e-4
0.278, 9.086e-6, 5.621e-4
0.279, 9.157e-6, 5.630e-4
0.280, 9.174e-6, 5.639e-4
0.281, 9.204e-6, 5.649e-4
0.282, 9.197e-6, 5.658e-4
0.283, 9.203e-6, 5.667e-4
0.284, 9.179e-6, 5.676e-4
0.285, 9.156e-6, 5.685e-4
0.286, 9.101e-6, 5.694e-4
0.287, 9.055e-6, 5.703e-4
0.288, 8.983e-6, 5.712e-4
0.289, 8.906e-6, 5.721e-4
0.290, 8.835e-6, 5.730e-4
0.291, 8.741e-6, 5.739e-4
0.292, 8.665e-6, 5.748e-4
0.293, 8.584e-6, 5.756e-4
0.294, 8.503e-6, 5.765e-4
0.295, 8.417e-6, 5.773e-4
0.296, 8.327e-6, 5.781e-4
0.297, 8.236e-6, 5.790e-4
0.298, 8.151e-6, 5.798e-4
0.299, 8.072e-6, 5.806e-4
0.300, 7.994e-6, 5.814e-4
0.301, 7.910e-6, 5.822e-4
0.302, 7.826e-6, 5.830e-4
0.303, 7.740e-6, 5.837e-4
0.304, 7.659e-6, 5.845e-4
0.305, 7.597e-6, 5.853e-4
0.306, 7.551e-6, 5.860e-4
0.307, 7.531e-6, 5.868e-4
0.308, 7.559e-6, 5.875e-4
0.309, 7.601e-6, 5.883e-4
0.310, 7.707e-6, 5.891e-4
0.311, 7.841e-6, 5.898e-4
0.312, 7.972e-6, 5.906e-4
0.313, 8.097e-6, 5.914e-4
0.314, 8.152e-6, 5.923e-4
0.315, 8.184e-6, 5.931e-4
0.316, 8.145e-6, 5.939e-4
0.317, 8.086e-6, 5.947e-4
0.318, 8.011e-6, 5.955e-4
0.319, 7.934e-6, 5.963e-4
0.320, 7.858e-6, 5.971e-4
0.321, 7.800e-6, 5.979e-4
0.322, 7.764e-6, 5.986e-4
0.323, 7.742e-6, 5.994e-4
0.324, 7.722e-6, 6.002e-4
0.325, 7.690e-6, 6.010e-4
0.326, 7.653e-6, 6.017e-4
0.327, 7.608e-6, 6.025e-4
0.328, 7.567e-6, 6.032e-4
0.329, 7.546e-6, 6.040e-4
0.330, 7.538e-6, 6.047e-4
0.331, 7.526e-6, 6.055e-4
0.332, 7.508e-6, 6.063e-4
0.333, 7.456e-6, 6.070e-4
0.334, 7.391e-6, 6.077e-4
0.335, 7.330e-6, 6.085e-4
0.336, 7.250e-6, 6.092e-4
0.337, 7.188e-6, 6.099e-4
0.338, 7.121e-6, 6.106e-4
0.339, 7.060e-6, 6.113e-4
0.340, 7.006e-6, 6.120e-4
0.341, 6.958e-6, 6.127e-4
0.342, 6.947e-6, 6.134e-4
0.343, 6.943e-6, 6.141e-4
0.344, 6.983e-6, 6.148e-4
0.345, 7.011e-6, 6.155e-4
0.346, 7.026e-6, 6.162e-4
0.347, 7.023e-6, 6.169e-4
0.348, 7.013e-6, 6.176e-4
0.349, 6.983e-6, 6.183e-4
0.350, 6.972e-6, 6.190e-4
0.351, 6.950e-6, 6.197e-4
0.352, 6.952e-6, 6.204e-4
0.353, 6.967e-6, 6.211e-4
0.354, 7.004e-6, 6.218e-4
0.355, 7.028e-6, 6.225e-4
0.356, 7.038e-6, 6.232e-4
0.357, 7.037e-6, 6.239e-4
0.358, 7.009e-6, 6.246e-4
0.359, 6.953e-6, 6.253e-4
0.360, 6.881e-6, 6.260e-4
0.361, 6.801e-6, 6.267e-4
0.362, 6.722e-6, 6.274e-4
0.363, 6.642e-6, 6.280e-4
0.364, 6.577e-6, 6.287e-4
0.365, 6.539e-6, 6.293e-4
0.366, 6.519e-6, 6.300e-4
0.367, 6.518e-6, 6.306e-4
0.368, 6.517e-6, 6.313e-4
0.369, 6.517e-6, 6.319e-4
0.370, 6.522e-6, 6.326e-4
0.371, 6.515e-6, 6.332e-4
0.372, 6.507e-6, 6.339e-4
0.373, 6.483e-6, 6.345e-4
0.374, 6.492e-6, 6.352e-4
0.375, 6.496e-6, 6.358e-4
0.376, 6.503e-6, 6.365e-4
0.377, 6.495e-6, 6.371e-4
0.378, 6.459e-6, 6.378e-4
0.379, 6.404e-6, 6.384e-4
0.380, 6.332e-6, 6.391e-4
0.381, 6.256e-6, 6.397e-4
0.382, 6.174e-6, 6.403e-4
0.383, 6.108e-6, 6.409e-4
0.384, 6.056e-6, 6.415e-4
0.385, 6.027e-6, 6.421e-4
0.386, 6.010e-6, 6.427e-4
0.387, 6.001e-6, 6.433e-4
0.388, 5.989e-6, 6.439e-4
0.389, 5.965e-6, 6.445e-4
0.390, 5.924e-6, 6.451e-4
0.391, 5.860e-6, 6.457e-4
0.392, 5.798e-6, 6.463e-4
0.393, 5.736e-6, 6.468e-4
0.394, 5.677e-6, 6.474e-4
0.395, 5.632e-6, 6.480e-4
0.396, 5.576e-6, 6.485e-4
0.397, 5.531e-6, 6.491e-4
0.398, 5.475e-6, 6.496e-4
0.399, 5.410e-6, 6.502e-4
0.400, 5.353e-6, 6.507e-4
0.401, 5.296e-6, 6.512e-4
0.402, 5.245e-6, 6.518e-4
0.403, 5.190e-6, 6.523e-4
0.404, 5.145e-6, 6.528e-4
0.405, 5.106e-6, 6.533e-4
0.406, 5.071e-6, 6.538e-4
0.407, 5.047e-6, 6.543e-4
0.408, 5.016e-6, 6.548e-4
0.409, 5.001e-6, 6.553e-4
0.410, 4.975e-6, 6.558e-4
0.411, 4.954e-6, 6.563e-4
0.412, 4.924e-6, 6.568e-4
0.413, 4.887e-6, 6.573e-4
0.414, 4.843e-6, 6.578e-4
0.415, 4.786e-6, 6.583e-4
0.416, 4.722e-6, 6.587e-4
0.417, 4.653e-6, 6.592e-4
0.418, 4.582e-6, 6.597e-4
0.419, 4.522e-6, 6.601e-4
0.420, 4.464e-6, 6.606e-4
0.421, 4.412e-6, 6.610e-4
0.422, 4.362e-6, 6.614e-4
0.423, 4.310e-6, 6.619e-4
0.424, 4.259e-6, 6.623e-4
0.425, 4.201e-6, 6.627e-4
0.426, 4.140e-6, 6.631e-4
0.427, 4.077e-6, 6.635e-4
0.428, 4.015e-6, 6.639e-4
0.429, 3.959e-6, 6.643e-4
0.430, 3.903e-6, 6.647e-4
0.431, 3.846e-6, 6.651e-4
0.432, 3.792e-6, 6.655e-4
0.433, 3.744e-6, 6.659e-4
0.434, 3.697e-6, 6.662e-4
0.435, 3.649e-6, 6.666e-4
0.436, 3.601e-6, 6.670e-4
0.437, 3.553e-6, 6.673e-4
0.438, 3.505e-6, 6.677e-4
0.439, 3.455e-6, 6.680e-4
0.440, 3.404e-6, 6.683e-4
0.441, 3.353e-6, 6.687e-4
0.442, 3.303e-6, 6.690e-4
0.443, 3.255e-6, 6.693e-4
0.444, 3.205e-6, 6.697e-4
0.445, 3.162e-6, 6.700e-4
0.446, 3.119e-6, 6.703e-4
0.447, 3.083e-6, 6.706e-4
0.448, 3.047e-6, 6.709e-4
0.449, 3.014e-6, 6.712e-4
0.450, 2.985e-6, 6.715e-4
0.451, 2.955e-6, 6.718e-4
0.452, 2.921e-6, 6.721e-4
0.453, 2.886e-6, 6.724e-4
0.454, 2.847e-6, 6.727e-4
0.455, 2.807e-6, 6.729e-4
0.456, 2.769e-6, 6.732e-4
0.457, 2.732e-6, 6.735e-4
0.458, 2.697e-6, 6.738e-4
0.459, 2.663e-6, 6.740e-4
0.460, 2.628e-6, 6.743e-4
0.461, 2.596e-6, 6.745e-4
0.462, 2.566e-6, 6.748e-4
0.463, 2.532e-6, 6.751e-4
0.464, 2.500e-6, 6.753e-4
0.465, 2.466e-6, 6.756e-4
0.466, 2.427e-6, 6.758e-4
0.467, 2.390e-6, 6.760e-4
0.468, 2.347e-6, 6.763e-4
0.469, 2.307e-6, 6.765e-4
0.470, 2.261e-6, 6.767e-4
0.471, 2.223e-6, 6.769e-4
0.472, 2.188e-6, 6.772e-4
0.473, 2.153e-6, 6.774e-4
0.474, 2.120e-6, 6.776e-4
0.475, 2.087e-6, 6.778e-4
0.476, 2.054e-6, 6.780e-4
0.477, 2.021e-6, 6.782e-4
0.478, 1.989e-6, 6.784e-4
0.479, 1.957e-6, 6.786e-4
0.480, 1.922e-6, 6.788e-4
0.481, 1.890e-6, 6.790e-4
0.482, 1.855e-6, 6.792e-4
0.483, 1.821e-6, 6.794e-4
0.484, 1.789e-6, 6.795e-4
0.485, 1.757e-6, 6.797e-4
0.486, 1.724e-6, 6.799e-4
0.487, 1.692e-6, 6.800e-4
0.488, 1.658e-6, 6.802e-4
0.489, 1.624e-6, 6.804e-4
0.490, 1.592e-6, 6.805e-4
0.491, 1.558e-6, 6.807e-4
0.492, 1.525e-6, 6.808e-4
0.493, 1.491e-6, 6.810e-4
0.494, 1.457e-6, 6.811e-4
0.495, 1.425e-6, 6.813e-4
0.496, 1.395e-6, 6.814e-4
0.497, 1.362e-6, 6.816e-4
0.498, 1.333e-6, 6.817e-4
0.499, 1.305e-6, 6.818e-4
0.500, 1.279e-6, 6.819e-4
0.501, 1.251e-6, 6.821e-4
0.502, 1.227e-6, 6.822e-4
0.503, 1.200e-6, 6.823e-4
0.504, 1.175e-6, 6.824e-4
0.505, 1.147e-6, 6.825e-4
0.506, 1.123e-6, 6.827e-4
0.507, 1.096e-6, 6.828e-4
0.508, 1.072e-6, 6.829e-4
0.509, 1.046e-6, 6.830e-4
0.510, 1.023e-6, 6.831e-4
0.511, 9.974e-7, 6.832e-4
0.512, 9.748e-7, 6.833e-4
0.513, 9.499e-7, 6.834e-4
0.514, 9.296e-7, 6.835e-4
0.515, 9.063e-7, 6.836e-4
0.516, 8.857e-7, 6.836e-4
0.517, 8.632e-7, 6.837e-4
0.518, 8.436e-7, 6.838e-4
0.519, 8.231e-7, 6.839e-4
0.520, 8.026e-7, 6.840e-4
0.521, 7.806e-7, 6.841e-4
0.522, 7.623e-7, 6.841e-4
0.523, 7.413e-7, 6.842e-4
0.524, 7.187e-7, 6.843e-4
0.525, 6.974e-7, 6.844e-4
0.526, 6.803e-7, 6.844e-4
0.527, 6.605e-7, 6.845e-4
0.528, 6.453e-7, 6.846e-4
0.529, 6.274e-7, 6.846e-4
0.530, 6.119e-7, 6.847e-4
0.531, 5.945e-7, 6.847e-4
0.532, 5.794e-7, 6.848e-4
0.533, 5.614e-7, 6.848e-4
0.534, 5.472e-7, 6.849e-4
0.535, 5.325e-7, 6.850e-4
0.536, 5.174e-7, 6.850e-4
0.537, 5.012e-7, 6.851e-4
0.538, 4.879e-7, 6.851e-4
0.539, 4.714e-7, 6.852e-4
0.540, 4.590e-7, 6.852e-4
0.541, 4.443e-7, 6.852e-4
0.542, 4.331e-7, 6.853e-4
0.543, 4.183e-7, 6.853e-4
0.544, 4.066e-7, 6.854e-4
0.545, 3.923e-7, 6.854e-4
0.546, 3.810e-7, 6.854e-4
0.547, 3.668e-7, 6.855e-4
0.548, 3.559e-7, 6.855e-4
0.549, 3.426e-7, 6.856e-4
0.550, 3.327e-7, 6.856e-4
0.551, 3.190e-7, 6.856e-4
0.552, 3.090e-7, 6.857e-4
0.553, 2.965e-7, 6.857e-4
0.554, 2.872e-7, 6.857e-4
0.555, 2.747e-7, 6.857e-4
0.556, 2.660e-7, 6.858e-4
0.557, 2.546e-7, 6.858e-4
0.558, 2.460e-7, 6.858e-4
0.559, 2.353e-7, 6.858e-4
0.560, 2.267e-7, 6.859e-4
0.561, 2.165e-7, 6.859e-4
0.562, 2.083e-7, 6.859e-4
0.563, 1.980e-7, 6.859e-4
0.564, 1.908e-7, 6.859e-4
0.565, 1.802e-7, 6.860e-4
0.566, 1.727e-7, 6.860e-4
0.567, 1.633e-7, 6.860e-4
0.568, 1.562e-7, 6.860e-4
0.569, 1.475e-7, 6.860e-4
0.570, 1.416e-7, 6.860e-4
0.571, 1.323e-7, 6.860e-4
0.572, 1.254e-7, 6.861e-4
0.573, 1.168e-7, 6.861e-4
0.574, 1.106e-7, 6.861e-4
0.575, 1.019e-7, 6.861e-4
0.576, 9.687e-8, 6.861e-4
0.577, 8.911e-8, 6.861e-4
0.578, 8.270e-8, 6.861e-4
0.579, 7.477e-8, 6.861e-4
0.580, 6.940e-8, 6.861e-4
0.581, 6.213e-8, 6.861e-4
0.582, 5.704e-8, 6.861e-4
0.583, 4.909e-8, 6.862e-4
0.584, 4.401e-8, 6.862e-4
0.585, 3.690e-8, 6.862e-4
0.586, 3.045e-8, 6.862e-4
0.587, 2.524e-8, 6.862e-4
0.588, 2.208e-8, 6.862e-4
0.589, 1.759e-8, 6.862e-4
0.590, 1.073e-8, 6.862e-4
0.591, 4.021e-9, 6.862e-4
0.592, 4.084e-10, 6.862e-4
0.593, -2.540e-9, 6.862e-4
0.594, -7.137e-9, 6.862e-4
0.595, -1.336e-8, 6.862e-4
0.596, -1.927e-8, 6.862e-4
0.597, -2.350e-8, 6.862e-4
0.598, -2.589e-8, 6.862e-4
0.599, -2.919e-8, 6.862e-4
0.600, -3.392e-8, 6.862e-4
0.601, -4.033e-8, 6.862e-4
0.602, -4.496e-8, 6.861e-4
0.603, -4.859e-8, 6.861e-4
0.604, -5.149e-8, 6.861e-4
0.605, -5.539e-8, 6.861e-4
0.606, -5.965e-8, 6.861e-4
0.607, -6.495e-8, 6.861e-4
0.608, -6.884e-8, 6.861e-4
0.609, -7.168e-8, 6.861e-4
0.610, -7.353e-8, 6.861e-4
0.611, -7.525e-8, 6.861e-4
0.612, -7.745e-8, 6.861e-4
0.613, -8.094e-8, 6.861e-4
0.614, -8.449e-8, 6.861e-4
0.615, -8.828e-8, 6.861e-4
0.616, -9.208e-8, 6.860e-4
0.617, -9.554e-8, 6.860e-4
0.618, -9.768e-8, 6.860e-4
0.619, -9.983e-8, 6.860e-4
0.620, -1.021e-7, 6.860e-4
0.621, -1.054e-7, 6.860e-4
0.622, -1.087e-7, 6.860e-4
0.623, -1.126e-7, 6.860e-4
0.624, -1.154e-7, 6.860e-4
0.625, -1.186e-7, 6.860e-4
0.626, -1.204e-7, 6.859e-4
0.627, -1.220e-7, 6.859e-4
0.628, -1.232e-7, 6.859e-4
0.629, -1.248e-7, 6.859e-4
0.630, -1.265e-7, 6.859e-4
0.631, -1.287e-7, 6.859e-4
0.632, -1.313e-7, 6.859e-4
0.633, -1.349e-7, 6.859e-4
0.634, -1.373e-7, 6.858e-4
0.635, -1.405e-7, 6.858e-4
0.636, -1.424e-7, 6.858e-4
0.637, -1.446e-7, 6.858e-4
0.638, -1.459e-7, 6.858e-4
0.639, -1.477e-7, 6.858e-4
0.640, -1.489e-7, 6.858e-4
0.641, -1.509e-7, 6.857e-4
0.642, -1.525e-7, 6.857e-4
0.643, -1.549e-7, 6.857e-4
0.644, -1.567e-7, 6.857e-4
0.645, -1.597e-7, 6.857e-4
0.646, -1.614e-7, 6.857e-4
0.647, -1.638e-7, 6.856e-4
0.648, -1.655e-7, 6.856e-4
0.649, -1.675e-7, 6.856e-4
0.650, -1.686e-7, 6.856e-4
0.651, -1.698e-7, 6.856e-4
0.652, -1.706e-7, 6.856e-4
0.653, -1.714e-7, 6.855e-4
0.654, -1.721e-7, 6.855e-4
0.655, -1.729e-7, 6.855e-4
0.656, -1.737e-7, 6.855e-4
0.657, -1.750e-7, 6.855e-4
0.658, -1.764e-7, 6.855e-4
0.659, -1.781e-7, 6.854e-4
0.660, -1.796e-7, 6.854e-4
0.661, -1.818e-7, 6.854e-4
0.662, -1.832e-7, 6.854e-4
0.663, -1.853e-7, 6.854e-4
0.664, -1.870e-7, 6.853e-4
0.665, -1.890e-7, 6.853e-4
0.666, -1.907e-7, 6.853e-4
0.667, -1.923e-7, 6.853e-4
0.668, -1.931e-7, 6.853e-4
0.669, -1.942e-7, 6.852e-4
0.670, -1.950e-7, 6.852e-4
0.671, -1.961e-7, 6.852e-4
0.672, -1.968e-7, 6.852e-4
0.673, -1.979e-7, 6.852e-4
0.674, -1.988e-7, 6.851e-4
0.675, -2.001e-7, 6.851e-4
0.676, -2.009e-7, 6.851e-4
0.677, -2.028e-7, 6.851e-4
0.678, -2.039e-7, 6.851e-4
0.679, -2.056e-7, 6.850e-4
0.680, -2.069e-7, 6.850e-4
0.681, -2.088e-7, 6.850e-4
0.682, -2.101e-7, 6.850e-4
0.683, -2.122e-7, 6.850e-4
0.684, -2.131e-7, 6.849e-4
0.685, -2.146e-7, 6.849e-4
0.686, -2.153e-7, 6.849e-4
0.687, -2.168e-7, 6.849e-4
0.688, -2.173e-7, 6.849e-4
0.689, -2.182e-7, 6.848e-4
0.690, -2.189e-7, 6.848e-4
0.691, -2.196e-7, 6.848e-4
0.692, -2.199e-7, 6.848e-4
0.693, -2.206e-7, 6.847e-4
0.694, -2.211e-7, 6.847e-4
0.695, -2.219e-7, 6.847e-4
0.696, -2.226e-7, 6.847e-4
0.697, -2.235e-7, 6.847e-4
0.698, -2.242e-7, 6.846e-4
0.699, -2.253e-7, 6.846e-4
0.700, -2.263e-7, 6.846e-4
0.701, -2.280e-7, 6.846e-4
0.702, -2.288e-7, 6.845e-4
0.703, -2.307e-7, 6.845e-4
0.704, -2.313e-7, 6.845e-4
0.705, -2.332e-7, 6.845e-4
0.706, -2.343e-7, 6.845e-4
0.707, -2.360e-7, 6.844e-4
0.708, -2.365e-7, 6.844e-4
0.709, -2.385e-7, 6.844e-4
0.710, -2.391e-7, 6.844e-4
0.711, -2.403e-7, 6.843e-4
0.712, -2.409e-7, 6.843e-4
0.713, -2.420e-7, 6.843e-4
0.714, -2.425e-7, 6.843e-4
0.715, -2.435e-7, 6.842e-4
0.716, -2.440e-7, 6.842e-4
0.717, -2.450e-7, 6.842e-4
0.718, -2.452e-7, 6.842e-4
0.719, -2.461e-7, 6.841e-4
0.720, -2.465e-7, 6.841e-4
0.721, -2.472e-7, 6.841e-4
0.722, -2.480e-7, 6.841e-4
0.723, -2.492e-7, 6.840e-4
0.724, -2.498e-7, 6.840e-4
0.725, -2.511e-7, 6.840e-4
0.726, -2.519e-7, 6.840e-4
0.727, -2.531e-7, 6.839e-4
0.728, -2.540e-7, 6.839e-4
0.729, -2.556e-7, 6.839e-4
0.730, -2.564e-7, 6.839e-4
0.731, -2.579e-7, 6.838e-4
0.732, -2.588e-7, 6.838e-4
0.733, -2.603e-7, 6.838e-4
0.734, -2.614e-7, 6.838e-4
0.735, -2.624e-7, 6.837e-4
0.736, -2.633e-7, 6.837e-4
0.737, -2.643e-7, 6.837e-4
0.738, -2.651e-7, 6.837e-4
0.739, -2.658e-7, 6.836e-4
0.740, -2.663e-7, 6.836e-4
0.741, -2.673e-7, 6.836e-4
0.742, -2.676e-7, 6.835e-4
0.743, -2.682e-7, 6.835e-4
0.744, -2.685e-7, 6.835e-4
0.745, -2.690e-7, 6.835e-4
0.746, -2.694e-7, 6.834e-4
0.747, -2.699e-7, 6.834e-4
0.748, -2.703e-7, 6.834e-4
0.749, -2.710e-7, 6.834e-4
0.750, -2.713e-7, 6.833e-4
0.751, -2.724e-7, 6.833e-4
0.752, -2.727e-7, 6.833e-4
0.753, -2.736e-7, 6.832e-4
0.754, -2.745e-7, 6.832e-4
0.755, -2.757e-7, 6.832e-4
0.756, -2.764e-7, 6.832e-4
0.757, -2.778e-7, 6.831e-4
0.758, -2.784e-7, 6.831e-4
0.759, -2.799e-7, 6.831e-4
0.760, -2.806e-7, 6.831e-4
0.761, -2.824e-7, 6.830e-4
0.762, -2.831e-7, 6.830e-4
0.763, -2.847e-7, 6.830e-4
0.764, -2.855e-7, 6.829e-4
0.765, -2.868e-7, 6.829e-4
0.766, -2.875e-7, 6.829e-4
0.767, -2.891e-7, 6.829e-4
0.768, -2.895e-7, 6.828e-4
0.769, -2.905e-7, 6.828e-4
0.770, -2.911e-7, 6.828e-4
0.771, -2.919e-7, 6.827e-4
0.772, -2.922e-7, 6.827e-4
0.773, -2.931e-7, 6.827e-4
0.774, -2.934e-7, 6.826e-4
0.775, -2.942e-7, 6.826e-4
0.776, -2.945e-7, 6.826e-4
0.777, -2.954e-7, 6.826e-4
0.778, -2.958e-7, 6.825e-4
0.779, -2.968e-7, 6.825e-4
0.780, -2.974e-7, 6.825e-4
0.781, -2.984e-7, 6.824e-4
0.782, -2.988e-7, 6.824e-4
0.783, -3.006e-7, 6.824e-4
0.784, -3.009e-7, 6.824e-4
0.785, -3.023e-7, 6.823e-4
0.786, -3.035e-7, 6.823e-4
0.787, -3.050e-7, 6.823e-4
0.788, -3.056e-7, 6.822e-4
0.789, -3.073e-7, 6.822e-4
0.790, -3.079e-7, 6.822e-4
0.791, -3.091e-7, 6.821e-4
0.792, -3.098e-7, 6.821e-4
0.793, -3.111e-7, 6.821e-4
0.794, -3.115e-7, 6.820e-4
0.795, -3.128e-7, 6.820e-4
0.796, -3.132e-7, 6.820e-4
0.797, -3.144e-7, 6.820e-4
0.798, -3.147e-7, 6.819e-4
0.799, -3.157e-7, 6.819e-4
0.800, -3.160e-7, 6.819e-4
0.801, -3.167e-7, 6.818e-4
0.802, -3.171e-7, 6.818e-4
0.803, -3.177e-7, 6.818e-4
0.804, -3.179e-7, 6.817e-4
0.805, -3.187e-7, 6.817e-4
0.806, -3.190e-7, 6.817e-4
0.807, -3.195e-7, 6.816e-4
0.808, -3.200e-7, 6.816e-4
0.809, -3.207e-7, 6.816e-4
0.810, -3.212e-7, 6.815e-4
0.811, -3.220e-7, 6.815e-4
0.812, -3.225e-7, 6.815e-4
0.813, -3.238e-7, 6.814e-4
0.814, -3.242e-7, 6.814e-4
0.815, -3.256e-7, 6.814e-4
0.816, -3.261e-7, 6.813e-4
0.817, -3.274e-7, 6.813e-4
0.818, -3.284e-7, 6.813e-4
0.819, -3.294e-7, 6.812e-4
0.820, -3.299e-7, 6.812e-4
0.821, -3.318e-7, 6.812e-4
0.822, -3.320e-7, 6.811e-4
0.823, -3.339e-7, 6.811e-4
0.824, -3.341e-7, 6.811e-4
0.825, -3.356e-7, 6.810e-4
0.826, -3.359e-7, 6.810e-4
0.827, -3.374e-7, 6.810e-4
0.828, -3.380e-7, 6.809e-4
0.829, -3.390e-7, 6.809e-4
0.830, -3.392e-7, 6.809e-4
0.831, -3.403e-7, 6.808e-4
0.832, -3.406e-7, 6.808e-4
0.833, -3.413e-7, 6.808e-4
0.834, -3.418e-7, 6.807e-4
0.835, -3.425e-7, 6.807e-4
0.836, -3.428e-7, 6.807e-4
0.837, -3.438e-7, 6.806e-4
0.838, -3.440e-7, 6.806e-4
0.839, -3.448e-7, 6.806e-4
0.840, -3.452e-7, 6.805e-4
0.841, -3.462e-7, 6.805e-4
0.842, -3.467e-7, 6.805e-4
0.843, -3.478e-7, 6.804e-4
0.844, -3.482e-7, 6.804e-4
0.845, -3.493e-7, 6.804e-4
0.846, -3.499e-7, 6.803e-4
0.847, -3.509e-7, 6.803e-4
0.848, -3.516e-7, 6.803e-4
0.849, -3.530e-7, 6.802e-4
0.850, -3.536e-7, 6.802e-4
0.851, -3.549e-7, 6.801e-4
0.852, -3.554e-7, 6.801e-4
0.853, -3.566e-7, 6.801e-4
0.854, -3.572e-7, 6.800e-4
0.855, -3.584e-7, 6.800e-4
0.856, -3.590e-7, 6.800e-4
0.857, -3.600e-7, 6.799e-4
0.858, -3.604e-7, 6.799e-4
0.859, -3.614e-7, 6.799e-4
0.860, -3.619e-7, 6.798e-4
0.861, -3.627e-7, 6.798e-4
0.862, -3.631e-7, 6.798e-4
0.863, -3.638e-7, 6.797e-4
0.864, -3.642e-7, 6.797e-4
0.865, -3.647e-7, 6.796e-4
0.866, -3.651e-7, 6.796e-4
0.867, -3.655e-7, 6.796e-4
0.868, -3.656e-7, 6.795e-4
0.869, -3.662e-7, 6.795e-4
0.870, -3.665e-7, 6.795e-4
0.871, -3.670e-7, 6.794e-4
0.872, -3.672e-7, 6.794e-4
0.873, -3.677e-7, 6.793e-4
0.874, -3.679e-7, 6.793e-4
0.875, -3.683e-7, 6.793e-4
0.876, -3.687e-7, 6.792e-4
0.877, -3.692e-7, 6.792e-4
0.878, -3.696e-7, 6.792e-4
0.879, -3.703e-7, 6.791e-4
0.880, -3.707e-7, 6.791e-4
0.881, -3.713e-7, 6.791e-4
0.882, -3.720e-7, 6.790e-4
0.883, -3.728e-7, 6.790e-4
0.884, -3.730e-7, 6.789e-4
0.885, -3.740e-7, 6.789e-4
0.886, -3.744e-7, 6.789e-4
0.887, -3.757e-7, 6.788e-4
0.888, -3.761e-7, 6.788e-4
0.889, -3.770e-7, 6.788e-4
0.890, -3.775e-7, 6.787e-4
0.891, -3.784e-7, 6.787e-4
0.892, -3.791e-7, 6.786e-4
0.893, -3.804e-7, 6.786e-4
0.894, -3.807e-7, 6.786e-4
0.895, -3.818e-7, 6.785e-4
0.896, -3.822e-7, 6.785e-4
0.897, -3.831e-7, 6.785e-4
0.898, -3.838e-7, 6.784e-4
0.899, -3.847e-7, 6.784e-4
0.900, -3.846e-7, 6.783e-4
0.901, -3.858e-7, 6.783e-4
0.902, -3.862e-7, 6.783e-4
0.903, -3.870e-7, 6.782e-4
0.904, -3.872e-7, 6.782e-4
0.905, -3.879e-7, 6.781e-4
0.906, -3.882e-7, 6.781e-4
0.907, -3.887e-7, 6.781e-4
0.908, -3.889e-7, 6.780e-4
0.909, -3.896e-7, 6.780e-4
0.910, -3.898e-7, 6.779e-4
0.911, -3.903e-7, 6.779e-4
0.912, -3.905e-7, 6.779e-4
0.913, -3.910e-7, 6.778e-4
0.914, -3.912e-7, 6.778e-4
0.915, -3.916e-7, 6.778e-4
0.916, -3.917e-7, 6.777e-4
0.917, -3.924e-7, 6.777e-4
0.918, -3.925e-7, 6.776e-4
0.919, -3.929e-7, 6.776e-4
0.920, -3.931e-7, 6.776e-4
0.921, -3.938e-7, 6.775e-4
0.922, -3.942e-7, 6.775e-4
0.923, -3.947e-7, 6.774e-4
0.924, -3.950e-7, 6.774e-4
0.925, -3.957e-7, 6.774e-4
0.926, -3.959e-7, 6.773e-4
0.927, -3.967e-7, 6.773e-4
0.928, -3.968e-7, 6.772e-4
0.929, -3.975e-7, 6.772e-4
0.930, -3.977e-7, 6.772e-4
0.931, -3.986e-7, 6.771e-4
0.932, -3.987e-7, 6.771e-4
0.933, -3.995e-7, 6.770e-4
0.934, -3.997e-7, 6.770e-4
0.935, -4.005e-7, 6.770e-4
0.936, -4.007e-7, 6.769e-4
0.937, -4.015e-7, 6.769e-4
0.938, -4.016e-7, 6.768e-4
0.939, -4.024e-7, 6.768e-4
0.940, -4.027e-7, 6.768e-4
0.941, -4.034e-7, 6.767e-4
0.942, -4.037e-7, 6.767e-4
0.943, -4.044e-7, 6.766e-4
0.944, -4.045e-7, 6.766e-4
0.945, -4.055e-7, 6.766e-4
0.946, -4.057e-7, 6.765e-4
0.947, -4.064e-7, 6.765e-4
0.948, -4.065e-7, 6.764e-4
0.949, -4.075e-7, 6.764e-4
0.950, -4.075e-7, 6.764e-4
0.951, -4.082e-7, 6.763e-4
0.952, -4.084e-7, 6.763e-4
0.953, -4.088e-7, 6.762e-4
0.954, -4.089e-7, 6.762e-4
0.955, -4.095e-7, 6.761e-4
0.956, -4.097e-7, 6.761e-4
0.957, -4.106e-7, 6.761e-4
0.958, -4.103e-7, 6.760e-4
0.959, -4.110e-7, 6.760e-4
0.960, -4.111e-7, 6.759e-4
0.961, -4.117e-7, 6.759e-4
0.962, -4.119e-7, 6.759e-4
0.963, -4.120e-7, 6.758e-4
0.964, -4.122e-7, 6.758e-4
0.965, -4.127e-7, 6.757e-4
0.966, -4.128e-7, 6.757e-4
0.967, -4.130e-7, 6.757e-4
0.968, -4.132e-7, 6.756e-4
0.969, -4.135e-7, 6.756e-4
0.970, -4.136e-7, 6.755e-4
0.971, -4.140e-7, 6.755e-4
0.972, -4.140e-7, 6.754e-4
0.973, -4.144e-7, 6.754e-4
0.974, -4.144e-7, 6.754e-4
0.975, -4.147e-7, 6.753e-4
0.976, -4.147e-7, 6.753e-4
0.977, -4.150e-7, 6.752e-4
0.978, -4.151e-7, 6.752e-4
0.979, -4.154e-7, 6.752e-4
0.980, -4.153e-7, 6.751e-4
0.981, -4.156e-7, 6.751e-4
0.982, -4.156e-7, 6.750e-4
0.983, -4.159e-7, 6.750e-4
0.984, -4.159e-7, 6.750e-4
0.985, -4.162e-7, 6.749e-4
0.986, -4.161e-7, 6.749e-4
0.987, -4.164e-7, 6.748e-4
0.988, -4.164e-7, 6.748e-4
0.989, -4.167e-7, 6.747e-4
0.990, -4.167e-7, 6.747e-4
0.991, -4.171e-7, 6.747e-4
0.992, -4.170e-7, 6.746e-4
0.993, -4.173e-7, 6.746e-4
0.994, -4.174e-7, 6.745e-4
0.995, -4.176e-7, 6.745e-4
0.996, -4.176e-7, 6.745e-4
0.997, -4.181e-7, 6.744e-4
0.998, -4.180e-7, 6.744e-4
0.999, -4.184e-7, 6.743e-4
1.000, -4.182e-7, 6.743e-4
1.001, -4.186e-7, 6.742e-4
1.002, -4.186e-7, 6.742e-4
1.003, -4.189e-7, 6.742e-4
1.004, -4.190e-7, 6.741e-4
1.005, -4.195e-7, 6.741e-4
1.006, -4.193e-7, 6.740e-4
1.007, -4.197e-7, 6.740e-4
1.008, -4.197e-7, 6.739e-4
1.009, -4.201e-7, 6.739e-4
1.010, -4.201e-7, 6.739e-4
1.011, -4.206e-7, 6.738e-4
1.012, -4.204e-7, 6.738e-4
1.013, -4.210e-7, 6.737e-4
1.014, -4.210e-7, 6.737e-4
1.015, -4.215e-7, 6.737e-4
1.016, -4.213e-7, 6.736e-4
1.017, -4.219e-7, 6.736e-4
1.018, -4.218e-7, 6.735e-4
1.019, -4.224e-7, 6.735e-4
1.020, -4.223e-7, 6.734e-4
1.021, -4.228e-7, 6.734e-4
1.022, -4.228e-7, 6.734e-4
1.023, -4.236e-7, 6.733e-4
1.024, -4.226e-7, 6.733e-4
1.025, -4.231e-7, 6.732e-4
1.026, -4.232e-7, 6.732e-4
1.027, -4.239e-7, 6.731e-4
1.028, -4.238e-7, 6.731e-4
1.029, -4.246e-7, 6.731e-4
1.030, -4.244e-7, 6.730e-4
1.031, -4.250e-7, 6.730e-4
1.032, -4.250e-7, 6.729e-4
1.033, -4.254e-7, 6.729e-4
1.034, -4.252e-7, 6.728e-4
1.035, -4.261e-7, 6.728e-4
1.036, -4.261e-7, 6.728e-4
1.037, -4.267e-7, 6.727e-4
1.038, -4.263e-7, 6.727e-4
1.039, -4.274e-7, 6.726e-4
1.040, -4.270e-7, 6.726e-4
1.041, -4.275e-7, 6.725e-4
1.042, -4.277e-7, 6.725e-4
1.043, -4.282e-7, 6.725e-4
1.044, -4.282e-7, 6.724e-4
1.045, -4.291e-7, 6.724e-4
1.046, -4.288e-7, 6.723e-4
1.047, -4.296e-7, 6.723e-4
1.048, -4.294e-7, 6.722e-4
1.049, -4.302e-7, 6.722e-4
1.050, -4.298e-7, 6.722e-4
1.051, -4.308e-7, 6.721e-4
1.052, -4.305e-7, 6.721e-4
1.053, -4.312e-7, 6.720e-4
1.054, -4.312e-7, 6.720e-4
1.055, -4.319e-7, 6.719e-4
1.056, -4.318e-7, 6.719e-4
1.057, -4.322e-7, 6.719e-4
1.058, -4.324e-7, 6.718e-4
1.059, -4.330e-7, 6.718e-4
1.060, -4.329e-7, 6.717e-4
1.061, -4.336e-7, 6.717e-4
1.062, -4.334e-7, 6.716e-4
1.063, -4.342e-7, 6.716e-4
1.064, -4.340e-7, 6.716e-4
1.065, -4.346e-7, 6.715e-4
1.066, -4.345e-7, 6.715e-4
1.067, -4.352e-7, 6.714e-4
1.068, -4.352e-7, 6.714e-4
1.069, -4.358e-7, 6.713e-4
1.070, -4.357e-7, 6.713e-4
1.071, -4.364e-7, 6.713e-4
1.072, -4.363e-7, 6.712e-4
1.073, -4.368e-7, 6.712e-4
1.074, -4.368e-7, 6.711e-4
1.075, -4.374e-7, 6.711e-4
1.076, -4.374e-7, 6.710e-4
1.077, -4.378e-7, 6.710e-4
1.078, -4.377e-7, 6.709e-4
1.079, -4.382e-7, 6.709e-4
1.080, -4.383e-7, 6.709e-4
1.081, -4.387e-7, 6.708e-4
1.082, -4.387e-7, 6.708e-4
1.083, -4.392e-7, 6.707e-4
1.084, -4.393e-7, 6.707e-4
1.085, -4.397e-7, 6.706e-4
1.086, -4.397e-7, 6.706e-4
1.087, -4.403e-7, 6.706e-4
1.088, -4.403e-7, 6.705e-4
1.089, -4.409e-7, 6.705e-4
1.090, -4.409e-7, 6.704e-4
1.091, -4.414e-7, 6.704e-4
1.092, -4.415e-7, 6.703e-4
1.093, -4.421e-7, 6.703e-4
1.094, -4.421e-7, 6.702e-4
1.095, -4.427e-7, 6.702e-4
1.096, -4.428e-7, 6.702e-4
1.097, -4.434e-7, 6.701e-4
1.098, -4.435e-7, 6.701e-4
1.099, -4.443e-7, 6.700e-4
1.100, -4.387e-7, 6.700e-4
