Nov. 15, 2023   13:17:05
Linear Sweep Voltammetry
File: c:\users\pku\desktop\zqq\lsvo3.txt
Data Source:  Experiment
Instrument Model:  CHI600B
Header: 
Note: 

Init E (V) = -0.287
Final E (V) = 1.1
Scan Rate (V/s) = 0.01
Sample Interval (V) = 0.001
Quiet Time (sec) = 2
Sensitivity (A/V) = 5e-6


Potential/V, Current/A, Charge/C

Segment 1:
-0.286, 9.382e-6, 9.382e-7
-0.285, 9.199e-6, 1.858e-6
-0.284, 9.084e-6, 2.767e-6
-0.283, 8.984e-6, 3.665e-6
-0.282, 8.897e-6, 4.555e-6
-0.281, 8.818e-6, 5.436e-6
-0.280, 8.740e-6, 6.310e-6
-0.279, 8.672e-6, 7.178e-6
-0.278, 8.603e-6, 8.038e-6
-0.277, 8.538e-6, 8.892e-6
-0.276, 8.473e-6, 9.739e-6
-0.275, 8.418e-6, 1.058e-5
-0.274, 8.365e-6, 1.142e-5
-0.273, 8.312e-6, 1.225e-5
-0.272, 8.266e-6, 1.308e-5
-0.271, 8.220e-6, 1.390e-5
-0.270, 8.174e-6, 1.471e-5
-0.269, 8.134e-6, 1.553e-5
-0.268, 8.091e-6, 1.634e-5
-0.267, 8.052e-6, 1.714e-5
-0.266, 8.016e-6, 1.794e-5
-0.265, 7.979e-6, 1.874e-5
-0.264, 7.946e-6, 1.954e-5
-0.263, 7.912e-6, 2.033e-5
-0.262, 7.879e-6, 2.112e-5
-0.261, 7.849e-6, 2.190e-5
-0.260, 7.819e-6, 2.268e-5
-0.259, 7.787e-6, 2.346e-5
-0.258, 7.762e-6, 2.424e-5
-0.257, 7.731e-6, 2.501e-5
-0.256, 7.702e-6, 2.578e-5
-0.255, 7.678e-6, 2.655e-5
-0.254, 7.652e-6, 2.731e-5
-0.253, 7.629e-6, 2.808e-5
-0.252, 7.606e-6, 2.884e-5
-0.251, 7.580e-6, 2.960e-5
-0.250, 7.561e-6, 3.035e-5
-0.249, 7.539e-6, 3.110e-5
-0.248, 7.517e-6, 3.186e-5
-0.247, 7.495e-6, 3.261e-5
-0.246, 7.476e-6, 3.335e-5
-0.245, 7.460e-6, 3.410e-5
-0.244, 7.439e-6, 3.484e-5
-0.243, 7.421e-6, 3.559e-5
-0.242, 7.402e-6, 3.633e-5
-0.241, 7.385e-6, 3.706e-5
-0.240, 7.369e-6, 3.780e-5
-0.239, 7.351e-6, 3.854e-5
-0.238, 7.335e-6, 3.927e-5
-0.237, 7.319e-6, 4.000e-5
-0.236, 7.305e-6, 4.073e-5
-0.235, 7.287e-6, 4.146e-5
-0.234, 7.275e-6, 4.219e-5
-0.233, 7.264e-6, 4.291e-5
-0.232, 7.248e-6, 4.364e-5
-0.231, 7.235e-6, 4.436e-5
-0.230, 7.223e-6, 4.509e-5
-0.229, 7.208e-6, 4.581e-5
-0.228, 7.198e-6, 4.653e-5
-0.227, 7.184e-6, 4.724e-5
-0.226, 7.176e-6, 4.796e-5
-0.225, 7.163e-6, 4.868e-5
-0.224, 7.152e-6, 4.939e-5
-0.223, 7.141e-6, 5.011e-5
-0.222, 7.130e-6, 5.082e-5
-0.221, 7.121e-6, 5.153e-5
-0.220, 7.110e-6, 5.224e-5
-0.219, 7.100e-6, 5.295e-5
-0.218, 7.092e-6, 5.366e-5
-0.217, 7.083e-6, 5.437e-5
-0.216, 7.074e-6, 5.508e-5
-0.215, 7.065e-6, 5.579e-5
-0.214, 7.056e-6, 5.649e-5
-0.213, 7.045e-6, 5.720e-5
-0.212, 7.037e-6, 5.790e-5
-0.211, 7.030e-6, 5.860e-5
-0.210, 7.022e-6, 5.930e-5
-0.209, 7.014e-6, 6.001e-5
-0.208, 7.005e-6, 6.071e-5
-0.207, 6.999e-6, 6.141e-5
-0.206, 6.987e-6, 6.210e-5
-0.205, 6.984e-6, 6.280e-5
-0.204, 6.974e-6, 6.350e-5
-0.203, 6.960e-6, 6.420e-5
-0.202, 6.954e-6, 6.489e-5
-0.201, 6.945e-6, 6.559e-5
-0.200, 6.938e-6, 6.628e-5
-0.199, 6.933e-6, 6.697e-5
-0.198, 6.926e-6, 6.767e-5
-0.197, 6.917e-6, 6.836e-5
-0.196, 6.911e-6, 6.905e-5
-0.195, 6.906e-6, 6.974e-5
-0.194, 6.902e-6, 7.043e-5
-0.193, 6.894e-6, 7.112e-5
-0.192, 6.888e-6, 7.181e-5
-0.191, 6.883e-6, 7.250e-5
-0.190, 6.877e-6, 7.318e-5
-0.189, 6.871e-6, 7.387e-5
-0.188, 6.866e-6, 7.456e-5
-0.187, 6.861e-6, 7.524e-5
-0.186, 6.858e-6, 7.593e-5
-0.185, 6.852e-6, 7.661e-5
-0.184, 6.847e-6, 7.730e-5
-0.183, 6.841e-6, 7.798e-5
-0.182, 6.836e-6, 7.867e-5
-0.181, 6.831e-6, 7.935e-5
-0.180, 6.827e-6, 8.003e-5
-0.179, 6.822e-6, 8.072e-5
-0.178, 6.815e-6, 8.140e-5
-0.177, 6.812e-6, 8.208e-5
-0.176, 6.807e-6, 8.276e-5
-0.175, 6.804e-6, 8.344e-5
-0.174, 6.797e-6, 8.412e-5
-0.173, 6.792e-6, 8.480e-5
-0.172, 6.790e-6, 8.548e-5
-0.171, 6.785e-6, 8.616e-5
-0.170, 6.783e-6, 8.683e-5
-0.169, 6.777e-6, 8.751e-5
-0.168, 6.771e-6, 8.819e-5
-0.167, 6.768e-6, 8.887e-5
-0.166, 6.763e-6, 8.954e-5
-0.165, 6.759e-6, 9.022e-5
-0.164, 6.754e-6, 9.089e-5
-0.163, 6.750e-6, 9.157e-5
-0.162, 6.745e-6, 9.224e-5
-0.161, 6.741e-6, 9.292e-5
-0.160, 6.738e-6, 9.359e-5
-0.159, 6.734e-6, 9.426e-5
-0.158, 6.729e-6, 9.494e-5
-0.157, 6.723e-6, 9.561e-5
-0.156, 6.720e-6, 9.628e-5
-0.155, 6.716e-6, 9.695e-5
-0.154, 6.712e-6, 9.762e-5
-0.153, 6.707e-6, 9.829e-5
-0.152, 6.703e-6, 9.896e-5
-0.151, 6.700e-6, 9.963e-5
-0.150, 6.695e-6, 1.003e-4
-0.149, 6.693e-6, 1.010e-4
-0.148, 6.689e-6, 1.016e-4
-0.147, 6.685e-6, 1.023e-4
-0.146, 6.682e-6, 1.030e-4
-0.145, 6.677e-6, 1.036e-4
-0.144, 6.674e-6, 1.043e-4
-0.143, 6.669e-6, 1.050e-4
-0.142, 6.666e-6, 1.056e-4
-0.141, 6.663e-6, 1.063e-4
-0.140, 6.660e-6, 1.070e-4
-0.139, 6.655e-6, 1.076e-4
-0.138, 6.652e-6, 1.083e-4
-0.137, 6.648e-6, 1.090e-4
-0.136, 6.645e-6, 1.096e-4
-0.135, 6.643e-6, 1.103e-4
-0.134, 6.640e-6, 1.110e-4
-0.133, 6.638e-6, 1.116e-4
-0.132, 6.634e-6, 1.123e-4
-0.131, 6.632e-6, 1.130e-4
-0.130, 6.629e-6, 1.136e-4
-0.129, 6.625e-6, 1.143e-4
-0.128, 6.623e-6, 1.149e-4
-0.127, 6.621e-6, 1.156e-4
-0.126, 6.617e-6, 1.163e-4
-0.125, 6.616e-6, 1.169e-4
-0.124, 6.614e-6, 1.176e-4
-0.123, 6.611e-6, 1.183e-4
-0.122, 6.609e-6, 1.189e-4
-0.121, 6.607e-6, 1.196e-4
-0.120, 6.603e-6, 1.202e-4
-0.119, 6.600e-6, 1.209e-4
-0.118, 6.598e-6, 1.216e-4
-0.117, 6.596e-6, 1.222e-4
-0.116, 6.594e-6, 1.229e-4
-0.115, 6.591e-6, 1.235e-4
-0.114, 6.590e-6, 1.242e-4
-0.113, 6.586e-6, 1.249e-4
-0.112, 6.583e-6, 1.255e-4
-0.111, 6.582e-6, 1.262e-4
-0.110, 6.578e-6, 1.268e-4
-0.109, 6.574e-6, 1.275e-4
-0.108, 6.573e-6, 1.281e-4
-0.107, 6.569e-6, 1.288e-4
-0.106, 6.566e-6, 1.295e-4
-0.105, 6.563e-6, 1.301e-4
-0.104, 6.559e-6, 1.308e-4
-0.103, 6.558e-6, 1.314e-4
-0.102, 6.551e-6, 1.321e-4
-0.101, 6.550e-6, 1.327e-4
-0.100, 6.547e-6, 1.334e-4
-0.099, 6.545e-6, 1.340e-4
-0.098, 6.542e-6, 1.347e-4
-0.097, 6.540e-6, 1.353e-4
-0.096, 6.538e-6, 1.360e-4
-0.095, 6.535e-6, 1.367e-4
-0.094, 6.531e-6, 1.373e-4
-0.093, 6.528e-6, 1.380e-4
-0.092, 6.526e-6, 1.386e-4
-0.091, 6.523e-6, 1.393e-4
-0.090, 6.520e-6, 1.399e-4
-0.089, 6.518e-6, 1.406e-4
-0.088, 6.516e-6, 1.412e-4
-0.087, 6.513e-6, 1.419e-4
-0.086, 6.512e-6, 1.425e-4
-0.085, 6.510e-6, 1.432e-4
-0.084, 6.507e-6, 1.438e-4
-0.083, 6.506e-6, 1.445e-4
-0.082, 6.503e-6, 1.451e-4
-0.081, 6.502e-6, 1.458e-4
-0.080, 6.500e-6, 1.464e-4
-0.079, 6.499e-6, 1.471e-4
-0.078, 6.495e-6, 1.477e-4
-0.077, 6.499e-6, 1.484e-4
-0.076, 6.496e-6, 1.490e-4
-0.075, 6.494e-6, 1.497e-4
-0.074, 6.494e-6, 1.503e-4
-0.073, 6.493e-6, 1.510e-4
-0.072, 6.491e-6, 1.516e-4
-0.071, 6.493e-6, 1.523e-4
-0.070, 6.493e-6, 1.529e-4
-0.069, 6.493e-6, 1.536e-4
-0.068, 6.493e-6, 1.542e-4
-0.067, 6.492e-6, 1.549e-4
-0.066, 6.495e-6, 1.555e-4
-0.065, 6.493e-6, 1.562e-4
-0.064, 6.494e-6, 1.568e-4
-0.063, 6.495e-6, 1.575e-4
-0.062, 6.496e-6, 1.581e-4
-0.061, 6.497e-6, 1.588e-4
-0.060, 6.498e-6, 1.594e-4
-0.059, 6.499e-6, 1.601e-4
-0.058, 6.500e-6, 1.607e-4
-0.057, 6.502e-6, 1.614e-4
-0.056, 6.501e-6, 1.620e-4
-0.055, 6.505e-6, 1.627e-4
-0.054, 6.505e-6, 1.633e-4
-0.053, 6.508e-6, 1.640e-4
-0.052, 6.510e-6, 1.646e-4
-0.051, 6.509e-6, 1.653e-4
-0.050, 6.512e-6, 1.659e-4
-0.049, 6.514e-6, 1.666e-4
-0.048, 6.515e-6, 1.672e-4
-0.047, 6.518e-6, 1.679e-4
-0.046, 6.518e-6, 1.685e-4
-0.045, 6.520e-6, 1.692e-4
-0.044, 6.521e-6, 1.698e-4
-0.043, 6.522e-6, 1.705e-4
-0.042, 6.524e-6, 1.711e-4
-0.041, 6.527e-6, 1.718e-4
-0.040, 6.527e-6, 1.724e-4
-0.039, 6.529e-6, 1.731e-4
-0.038, 6.530e-6, 1.737e-4
-0.037, 6.531e-6, 1.744e-4
-0.036, 6.533e-6, 1.751e-4
-0.035, 6.534e-6, 1.757e-4
-0.034, 6.536e-6, 1.764e-4
-0.033, 6.537e-6, 1.770e-4
-0.032, 6.538e-6, 1.777e-4
-0.031, 6.539e-6, 1.783e-4
-0.030, 6.539e-6, 1.790e-4
-0.029, 6.540e-6, 1.796e-4
-0.028, 6.541e-6, 1.803e-4
-0.027, 6.541e-6, 1.809e-4
-0.026, 6.542e-6, 1.816e-4
-0.025, 6.543e-6, 1.822e-4
-0.024, 6.543e-6, 1.829e-4
-0.023, 6.543e-6, 1.836e-4
-0.022, 6.544e-6, 1.842e-4
-0.021, 6.544e-6, 1.849e-4
-0.020, 6.544e-6, 1.855e-4
-0.019, 6.545e-6, 1.862e-4
-0.018, 6.545e-6, 1.868e-4
-0.017, 6.545e-6, 1.875e-4
-0.016, 6.545e-6, 1.881e-4
-0.015, 6.546e-6, 1.888e-4
-0.014, 6.546e-6, 1.894e-4
-0.013, 6.546e-6, 1.901e-4
-0.012, 6.546e-6, 1.908e-4
-0.011, 6.546e-6, 1.914e-4
-0.010, 6.546e-6, 1.921e-4
-0.009, 6.546e-6, 1.927e-4
-0.008, 6.546e-6, 1.934e-4
-0.007, 6.547e-6, 1.940e-4
-0.006, 6.546e-6, 1.947e-4
-0.005, 6.546e-6, 1.953e-4
-0.004, 6.547e-6, 1.960e-4
-0.003, 6.546e-6, 1.966e-4
-0.002, 6.546e-6, 1.973e-4
-0.001, 6.546e-6, 1.980e-4
-0.000, 6.547e-6, 1.986e-4
0.001, 6.546e-6, 1.993e-4
0.002, 6.545e-6, 1.999e-4
0.003, 6.546e-6, 2.006e-4
0.004, 6.545e-6, 2.012e-4
0.005, 6.545e-6, 2.019e-4
0.006, 6.545e-6, 2.025e-4
0.007, 6.545e-6, 2.032e-4
0.008, 6.544e-6, 2.038e-4
0.009, 6.544e-6, 2.045e-4
0.010, 6.544e-6, 2.052e-4
0.011, 6.544e-6, 2.058e-4
0.012, 6.544e-6, 2.065e-4
0.013, 6.544e-6, 2.071e-4
0.014, 6.543e-6, 2.078e-4
0.015, 6.543e-6, 2.084e-4
0.016, 6.543e-6, 2.091e-4
0.017, 6.542e-6, 2.097e-4
0.018, 6.542e-6, 2.104e-4
0.019, 6.542e-6, 2.110e-4
0.020, 6.541e-6, 2.117e-4
0.021, 6.541e-6, 2.124e-4
0.022, 6.540e-6, 2.130e-4
0.023, 6.540e-6, 2.137e-4
0.024, 6.539e-6, 2.143e-4
0.025, 6.539e-6, 2.150e-4
0.026, 6.539e-6, 2.156e-4
0.027, 6.537e-6, 2.163e-4
0.028, 6.537e-6, 2.169e-4
0.029, 6.536e-6, 2.176e-4
0.030, 6.536e-6, 2.182e-4
0.031, 6.535e-6, 2.189e-4
0.032, 6.534e-6, 2.195e-4
0.033, 6.534e-6, 2.202e-4
0.034, 6.532e-6, 2.209e-4
0.035, 6.532e-6, 2.215e-4
0.036, 6.531e-6, 2.222e-4
0.037, 6.530e-6, 2.228e-4
0.038, 6.529e-6, 2.235e-4
0.039, 6.528e-6, 2.241e-4
0.040, 6.527e-6, 2.248e-4
0.041, 6.526e-6, 2.254e-4
0.042, 6.525e-6, 2.261e-4
0.043, 6.524e-6, 2.267e-4
0.044, 6.523e-6, 2.274e-4
0.045, 6.522e-6, 2.280e-4
0.046, 6.521e-6, 2.287e-4
0.047, 6.520e-6, 2.293e-4
0.048, 6.519e-6, 2.300e-4
0.049, 6.518e-6, 2.306e-4
0.050, 6.517e-6, 2.313e-4
0.051, 6.515e-6, 2.319e-4
0.052, 6.515e-6, 2.326e-4
0.053, 6.513e-6, 2.332e-4
0.054, 6.513e-6, 2.339e-4
0.055, 6.511e-6, 2.345e-4
0.056, 6.510e-6, 2.352e-4
0.057, 6.508e-6, 2.358e-4
0.058, 6.506e-6, 2.365e-4
0.059, 6.503e-6, 2.372e-4
0.060, 6.501e-6, 2.378e-4
0.061, 6.500e-6, 2.385e-4
0.062, 6.498e-6, 2.391e-4
0.063, 6.497e-6, 2.398e-4
0.064, 6.496e-6, 2.404e-4
0.065, 6.494e-6, 2.410e-4
0.066, 6.493e-6, 2.417e-4
0.067, 6.491e-6, 2.423e-4
0.068, 6.490e-6, 2.430e-4
0.069, 6.488e-6, 2.436e-4
0.070, 6.487e-6, 2.443e-4
0.071, 6.485e-6, 2.449e-4
0.072, 6.483e-6, 2.456e-4
0.073, 6.482e-6, 2.462e-4
0.074, 6.480e-6, 2.469e-4
0.075, 6.478e-6, 2.475e-4
0.076, 6.476e-6, 2.482e-4
0.077, 6.475e-6, 2.488e-4
0.078, 6.473e-6, 2.495e-4
0.079, 6.471e-6, 2.501e-4
0.080, 6.470e-6, 2.508e-4
0.081, 6.469e-6, 2.514e-4
0.082, 6.467e-6, 2.521e-4
0.083, 6.466e-6, 2.527e-4
0.084, 6.464e-6, 2.534e-4
0.085, 6.462e-6, 2.540e-4
0.086, 6.460e-6, 2.547e-4
0.087, 6.459e-6, 2.553e-4
0.088, 6.456e-6, 2.559e-4
0.089, 6.454e-6, 2.566e-4
0.090, 6.453e-6, 2.572e-4
0.091, 6.451e-6, 2.579e-4
0.092, 6.449e-6, 2.585e-4
0.093, 6.448e-6, 2.592e-4
0.094, 6.446e-6, 2.598e-4
0.095, 6.444e-6, 2.605e-4
0.096, 6.443e-6, 2.611e-4
0.097, 6.441e-6, 2.617e-4
0.098, 6.439e-6, 2.624e-4
0.099, 6.437e-6, 2.630e-4
0.100, 6.436e-6, 2.637e-4
0.101, 6.433e-6, 2.643e-4
0.102, 6.431e-6, 2.650e-4
0.103, 6.428e-6, 2.656e-4
0.104, 6.427e-6, 2.662e-4
0.105, 6.425e-6, 2.669e-4
0.106, 6.423e-6, 2.675e-4
0.107, 6.421e-6, 2.682e-4
0.108, 6.419e-6, 2.688e-4
0.109, 6.417e-6, 2.695e-4
0.110, 6.416e-6, 2.701e-4
0.111, 6.413e-6, 2.707e-4
0.112, 6.411e-6, 2.714e-4
0.113, 6.409e-6, 2.720e-4
0.114, 6.407e-6, 2.727e-4
0.115, 6.405e-6, 2.733e-4
0.116, 6.403e-6, 2.739e-4
0.117, 6.401e-6, 2.746e-4
0.118, 6.400e-6, 2.752e-4
0.119, 6.398e-6, 2.759e-4
0.120, 6.396e-6, 2.765e-4
0.121, 6.394e-6, 2.771e-4
0.122, 6.392e-6, 2.778e-4
0.123, 6.390e-6, 2.784e-4
0.124, 6.388e-6, 2.791e-4
0.125, 6.386e-6, 2.797e-4
0.126, 6.384e-6, 2.803e-4
0.127, 6.381e-6, 2.810e-4
0.128, 6.379e-6, 2.816e-4
0.129, 6.376e-6, 2.823e-4
0.130, 6.374e-6, 2.829e-4
0.131, 6.372e-6, 2.835e-4
0.132, 6.370e-6, 2.842e-4
0.133, 6.368e-6, 2.848e-4
0.134, 6.366e-6, 2.854e-4
0.135, 6.364e-6, 2.861e-4
0.136, 6.361e-6, 2.867e-4
0.137, 6.359e-6, 2.873e-4
0.138, 6.356e-6, 2.880e-4
0.139, 6.354e-6, 2.886e-4
0.140, 6.352e-6, 2.893e-4
0.141, 6.350e-6, 2.899e-4
0.142, 6.348e-6, 2.905e-4
0.143, 6.346e-6, 2.912e-4
0.144, 6.344e-6, 2.918e-4
0.145, 6.341e-6, 2.924e-4
0.146, 6.338e-6, 2.931e-4
0.147, 6.336e-6, 2.937e-4
0.148, 6.333e-6, 2.943e-4
0.149, 6.331e-6, 2.950e-4
0.150, 6.328e-6, 2.956e-4
0.151, 6.326e-6, 2.962e-4
0.152, 6.324e-6, 2.969e-4
0.153, 6.322e-6, 2.975e-4
0.154, 6.319e-6, 2.981e-4
0.155, 6.316e-6, 2.988e-4
0.156, 6.315e-6, 2.994e-4
0.157, 6.312e-6, 3.000e-4
0.158, 6.309e-6, 3.006e-4
0.159, 6.307e-6, 3.013e-4
0.160, 6.304e-6, 3.019e-4
0.161, 6.302e-6, 3.025e-4
0.162, 6.300e-6, 3.032e-4
0.163, 6.298e-6, 3.038e-4
0.164, 6.296e-6, 3.044e-4
0.165, 6.293e-6, 3.051e-4
0.166, 6.291e-6, 3.057e-4
0.167, 6.288e-6, 3.063e-4
0.168, 6.285e-6, 3.069e-4
0.169, 6.281e-6, 3.076e-4
0.170, 6.278e-6, 3.082e-4
0.171, 6.276e-6, 3.088e-4
0.172, 6.273e-6, 3.095e-4
0.173, 6.271e-6, 3.101e-4
0.174, 6.268e-6, 3.107e-4
0.175, 6.265e-6, 3.113e-4
0.176, 6.261e-6, 3.120e-4
0.177, 6.258e-6, 3.126e-4
0.178, 6.255e-6, 3.132e-4
0.179, 6.252e-6, 3.138e-4
0.180, 6.250e-6, 3.145e-4
0.181, 6.248e-6, 3.151e-4
0.182, 6.246e-6, 3.157e-4
0.183, 6.243e-6, 3.163e-4
0.184, 6.240e-6, 3.170e-4
0.185, 6.236e-6, 3.176e-4
0.186, 6.232e-6, 3.182e-4
0.187, 6.229e-6, 3.188e-4
0.188, 6.226e-6, 3.195e-4
0.189, 6.224e-6, 3.201e-4
0.190, 6.221e-6, 3.207e-4
0.191, 6.218e-6, 3.213e-4
0.192, 6.214e-6, 3.219e-4
0.193, 6.210e-6, 3.226e-4
0.194, 6.207e-6, 3.232e-4
0.195, 6.204e-6, 3.238e-4
0.196, 6.202e-6, 3.244e-4
0.197, 6.199e-6, 3.250e-4
0.198, 6.197e-6, 3.257e-4
0.199, 6.193e-6, 3.263e-4
0.200, 6.189e-6, 3.269e-4
0.201, 6.185e-6, 3.275e-4
0.202, 6.180e-6, 3.281e-4
0.203, 6.176e-6, 3.288e-4
0.204, 6.171e-6, 3.294e-4
0.205, 6.168e-6, 3.300e-4
0.206, 6.163e-6, 3.306e-4
0.207, 6.158e-6, 3.312e-4
0.208, 6.155e-6, 3.318e-4
0.209, 6.152e-6, 3.324e-4
0.210, 6.148e-6, 3.331e-4
0.211, 6.144e-6, 3.337e-4
0.212, 6.140e-6, 3.343e-4
0.213, 6.135e-6, 3.349e-4
0.214, 6.131e-6, 3.355e-4
0.215, 6.128e-6, 3.361e-4
0.216, 6.125e-6, 3.367e-4
0.217, 6.122e-6, 3.374e-4
0.218, 6.117e-6, 3.380e-4
0.219, 6.112e-6, 3.386e-4
0.220, 6.108e-6, 3.392e-4
0.221, 6.105e-6, 3.398e-4
0.222, 6.102e-6, 3.404e-4
0.223, 6.098e-6, 3.410e-4
0.224, 6.094e-6, 3.416e-4
0.225, 6.089e-6, 3.422e-4
0.226, 6.084e-6, 3.428e-4
0.227, 6.080e-6, 3.435e-4
0.228, 6.077e-6, 3.441e-4
0.229, 6.074e-6, 3.447e-4
0.230, 6.069e-6, 3.453e-4
0.231, 6.063e-6, 3.459e-4
0.232, 6.059e-6, 3.465e-4
0.233, 6.055e-6, 3.471e-4
0.234, 6.051e-6, 3.477e-4
0.235, 6.047e-6, 3.483e-4
0.236, 6.041e-6, 3.489e-4
0.237, 6.036e-6, 3.495e-4
0.238, 6.032e-6, 3.501e-4
0.239, 6.028e-6, 3.507e-4
0.240, 6.024e-6, 3.513e-4
0.241, 6.018e-6, 3.519e-4
0.242, 6.013e-6, 3.525e-4
0.243, 6.008e-6, 3.531e-4
0.244, 6.005e-6, 3.537e-4
0.245, 6.001e-6, 3.543e-4
0.246, 5.995e-6, 3.549e-4
0.247, 5.989e-6, 3.555e-4
0.248, 5.984e-6, 3.561e-4
0.249, 5.980e-6, 3.567e-4
0.250, 5.975e-6, 3.573e-4
0.251, 5.969e-6, 3.579e-4
0.252, 5.963e-6, 3.585e-4
0.253, 5.958e-6, 3.591e-4
0.254, 5.952e-6, 3.597e-4
0.255, 5.944e-6, 3.603e-4
0.256, 5.937e-6, 3.609e-4
0.257, 5.932e-6, 3.615e-4
0.258, 5.926e-6, 3.621e-4
0.259, 5.916e-6, 3.627e-4
0.260, 5.911e-6, 3.633e-4
0.261, 5.907e-6, 3.638e-4
0.262, 5.902e-6, 3.644e-4
0.263, 5.897e-6, 3.650e-4
0.264, 5.890e-6, 3.656e-4
0.265, 5.885e-6, 3.662e-4
0.266, 5.881e-6, 3.668e-4
0.267, 5.875e-6, 3.674e-4
0.268, 5.868e-6, 3.680e-4
0.269, 5.862e-6, 3.686e-4
0.270, 5.858e-6, 3.691e-4
0.271, 5.852e-6, 3.697e-4
0.272, 5.845e-6, 3.703e-4
0.273, 5.838e-6, 3.709e-4
0.274, 5.833e-6, 3.715e-4
0.275, 5.826e-6, 3.721e-4
0.276, 5.816e-6, 3.726e-4
0.277, 5.809e-6, 3.732e-4
0.278, 5.802e-6, 3.738e-4
0.279, 5.794e-6, 3.744e-4
0.280, 5.788e-6, 3.750e-4
0.281, 5.783e-6, 3.755e-4
0.282, 5.776e-6, 3.761e-4
0.283, 5.768e-6, 3.767e-4
0.284, 5.762e-6, 3.773e-4
0.285, 5.757e-6, 3.778e-4
0.286, 5.749e-6, 3.784e-4
0.287, 5.741e-6, 3.790e-4
0.288, 5.735e-6, 3.796e-4
0.289, 5.729e-6, 3.801e-4
0.290, 5.720e-6, 3.807e-4
0.291, 5.714e-6, 3.813e-4
0.292, 5.708e-6, 3.819e-4
0.293, 5.699e-6, 3.824e-4
0.294, 5.691e-6, 3.830e-4
0.295, 5.685e-6, 3.836e-4
0.296, 5.677e-6, 3.841e-4
0.297, 5.668e-6, 3.847e-4
0.298, 5.662e-6, 3.853e-4
0.299, 5.654e-6, 3.858e-4
0.300, 5.644e-6, 3.864e-4
0.301, 5.637e-6, 3.870e-4
0.302, 5.629e-6, 3.875e-4
0.303, 5.620e-6, 3.881e-4
0.304, 5.613e-6, 3.886e-4
0.305, 5.605e-6, 3.892e-4
0.306, 5.595e-6, 3.898e-4
0.307, 5.588e-6, 3.903e-4
0.308, 5.578e-6, 3.909e-4
0.309, 5.569e-6, 3.914e-4
0.310, 5.561e-6, 3.920e-4
0.311, 5.551e-6, 3.925e-4
0.312, 5.542e-6, 3.931e-4
0.313, 5.534e-6, 3.937e-4
0.314, 5.523e-6, 3.942e-4
0.315, 5.515e-6, 3.948e-4
0.316, 5.506e-6, 3.953e-4
0.317, 5.496e-6, 3.959e-4
0.318, 5.487e-6, 3.964e-4
0.319, 5.475e-6, 3.970e-4
0.320, 5.467e-6, 3.975e-4
0.321, 5.457e-6, 3.980e-4
0.322, 5.446e-6, 3.986e-4
0.323, 5.438e-6, 3.991e-4
0.324, 5.424e-6, 3.997e-4
0.325, 5.409e-6, 4.002e-4
0.326, 5.397e-6, 4.008e-4
0.327, 5.389e-6, 4.013e-4
0.328, 5.376e-6, 4.018e-4
0.329, 5.366e-6, 4.024e-4
0.330, 5.353e-6, 4.029e-4
0.331, 5.344e-6, 4.034e-4
0.332, 5.333e-6, 4.040e-4
0.333, 5.322e-6, 4.045e-4
0.334, 5.312e-6, 4.050e-4
0.335, 5.300e-6, 4.056e-4
0.336, 5.290e-6, 4.061e-4
0.337, 5.277e-6, 4.066e-4
0.338, 5.267e-6, 4.072e-4
0.339, 5.253e-6, 4.077e-4
0.340, 5.243e-6, 4.082e-4
0.341, 5.230e-6, 4.087e-4
0.342, 5.220e-6, 4.092e-4
0.343, 5.207e-6, 4.098e-4
0.344, 5.196e-6, 4.103e-4
0.345, 5.183e-6, 4.108e-4
0.346, 5.171e-6, 4.113e-4
0.347, 5.157e-6, 4.118e-4
0.348, 5.146e-6, 4.124e-4
0.349, 5.132e-6, 4.129e-4
0.350, 5.121e-6, 4.134e-4
0.351, 5.107e-6, 4.139e-4
0.352, 5.096e-6, 4.144e-4
0.353, 5.081e-6, 4.149e-4
0.354, 5.069e-6, 4.154e-4
0.355, 5.054e-6, 4.159e-4
0.356, 5.041e-6, 4.164e-4
0.357, 5.028e-6, 4.169e-4
0.358, 5.014e-6, 4.174e-4
0.359, 5.000e-6, 4.179e-4
0.360, 4.985e-6, 4.184e-4
0.361, 4.972e-6, 4.189e-4
0.362, 4.957e-6, 4.194e-4
0.363, 4.943e-6, 4.199e-4
0.364, 4.929e-6, 4.204e-4
0.365, 4.914e-6, 4.209e-4
0.366, 4.901e-6, 4.214e-4
0.367, 4.885e-6, 4.219e-4
0.368, 4.871e-6, 4.224e-4
0.369, 4.856e-6, 4.228e-4
0.370, 4.840e-6, 4.233e-4
0.371, 4.827e-6, 4.238e-4
0.372, 4.811e-6, 4.243e-4
0.373, 4.795e-6, 4.248e-4
0.374, 4.780e-6, 4.253e-4
0.375, 4.763e-6, 4.257e-4
0.376, 4.748e-6, 4.262e-4
0.377, 4.733e-6, 4.267e-4
0.378, 4.717e-6, 4.272e-4
0.379, 4.700e-6, 4.276e-4
0.380, 4.685e-6, 4.281e-4
0.381, 4.667e-6, 4.286e-4
0.382, 4.651e-6, 4.290e-4
0.383, 4.633e-6, 4.295e-4
0.384, 4.616e-6, 4.299e-4
0.385, 4.599e-6, 4.304e-4
0.386, 4.581e-6, 4.309e-4
0.387, 4.564e-6, 4.313e-4
0.388, 4.546e-6, 4.318e-4
0.389, 4.530e-6, 4.322e-4
0.390, 4.512e-6, 4.327e-4
0.391, 4.494e-6, 4.331e-4
0.392, 4.475e-6, 4.336e-4
0.393, 4.458e-6, 4.340e-4
0.394, 4.441e-6, 4.345e-4
0.395, 4.422e-6, 4.349e-4
0.396, 4.404e-6, 4.353e-4
0.397, 4.385e-6, 4.358e-4
0.398, 4.367e-6, 4.362e-4
0.399, 4.347e-6, 4.367e-4
0.400, 4.329e-6, 4.371e-4
0.401, 4.310e-6, 4.375e-4
0.402, 4.291e-6, 4.380e-4
0.403, 4.271e-6, 4.384e-4
0.404, 4.251e-6, 4.388e-4
0.405, 4.232e-6, 4.392e-4
0.406, 4.212e-6, 4.396e-4
0.407, 4.192e-6, 4.401e-4
0.408, 4.172e-6, 4.405e-4
0.409, 4.152e-6, 4.409e-4
0.410, 4.132e-6, 4.413e-4
0.411, 4.112e-6, 4.417e-4
0.412, 4.091e-6, 4.421e-4
0.413, 4.071e-6, 4.425e-4
0.414, 4.050e-6, 4.429e-4
0.415, 4.029e-6, 4.433e-4
0.416, 4.008e-6, 4.437e-4
0.417, 3.987e-6, 4.441e-4
0.418, 3.966e-6, 4.445e-4
0.419, 3.946e-6, 4.449e-4
0.420, 3.923e-6, 4.453e-4
0.421, 3.902e-6, 4.457e-4
0.422, 3.880e-6, 4.461e-4
0.423, 3.853e-6, 4.465e-4
0.424, 3.828e-6, 4.469e-4
0.425, 3.805e-6, 4.473e-4
0.426, 3.782e-6, 4.476e-4
0.427, 3.760e-6, 4.480e-4
0.428, 3.738e-6, 4.484e-4
0.429, 3.715e-6, 4.488e-4
0.430, 3.692e-6, 4.491e-4
0.431, 3.669e-6, 4.495e-4
0.432, 3.647e-6, 4.499e-4
0.433, 3.625e-6, 4.502e-4
0.434, 3.600e-6, 4.506e-4
0.435, 3.577e-6, 4.509e-4
0.436, 3.555e-6, 4.513e-4
0.437, 3.531e-6, 4.516e-4
0.438, 3.508e-6, 4.520e-4
0.439, 3.484e-6, 4.523e-4
0.440, 3.461e-6, 4.527e-4
0.441, 3.436e-6, 4.530e-4
0.442, 3.412e-6, 4.534e-4
0.443, 3.387e-6, 4.537e-4
0.444, 3.364e-6, 4.541e-4
0.445, 3.340e-6, 4.544e-4
0.446, 3.316e-6, 4.547e-4
0.447, 3.291e-6, 4.550e-4
0.448, 3.267e-6, 4.554e-4
0.449, 3.242e-6, 4.557e-4
0.450, 3.217e-6, 4.560e-4
0.451, 3.192e-6, 4.563e-4
0.452, 3.169e-6, 4.567e-4
0.453, 3.143e-6, 4.570e-4
0.454, 3.118e-6, 4.573e-4
0.455, 3.093e-6, 4.576e-4
0.456, 3.068e-6, 4.579e-4
0.457, 3.034e-6, 4.582e-4
0.458, 3.007e-6, 4.585e-4
0.459, 2.983e-6, 4.588e-4
0.460, 2.957e-6, 4.591e-4
0.461, 2.931e-6, 4.594e-4
0.462, 2.905e-6, 4.597e-4
0.463, 2.880e-6, 4.600e-4
0.464, 2.854e-6, 4.603e-4
0.465, 2.828e-6, 4.605e-4
0.466, 2.802e-6, 4.608e-4
0.467, 2.778e-6, 4.611e-4
0.468, 2.752e-6, 4.614e-4
0.469, 2.726e-6, 4.616e-4
0.470, 2.700e-6, 4.619e-4
0.471, 2.674e-6, 4.622e-4
0.472, 2.647e-6, 4.624e-4
0.473, 2.621e-6, 4.627e-4
0.474, 2.595e-6, 4.630e-4
0.475, 2.569e-6, 4.632e-4
0.476, 2.542e-6, 4.635e-4
0.477, 2.516e-6, 4.637e-4
0.478, 2.490e-6, 4.640e-4
0.479, 2.464e-6, 4.642e-4
0.480, 2.437e-6, 4.645e-4
0.481, 2.411e-6, 4.647e-4
0.482, 2.386e-6, 4.649e-4
0.483, 2.359e-6, 4.652e-4
0.484, 2.332e-6, 4.654e-4
0.485, 2.305e-6, 4.656e-4
0.486, 2.271e-6, 4.659e-4
0.487, 2.243e-6, 4.661e-4
0.488, 2.216e-6, 4.663e-4
0.489, 2.191e-6, 4.665e-4
0.490, 2.165e-6, 4.668e-4
0.491, 2.138e-6, 4.670e-4
0.492, 2.112e-6, 4.672e-4
0.493, 2.086e-6, 4.674e-4
0.494, 2.060e-6, 4.676e-4
0.495, 2.032e-6, 4.678e-4
0.496, 2.006e-6, 4.680e-4
0.497, 1.980e-6, 4.682e-4
0.498, 1.954e-6, 4.684e-4
0.499, 1.927e-6, 4.686e-4
0.500, 1.901e-6, 4.688e-4
0.501, 1.874e-6, 4.690e-4
0.502, 1.848e-6, 4.691e-4
0.503, 1.822e-6, 4.693e-4
0.504, 1.795e-6, 4.695e-4
0.505, 1.770e-6, 4.697e-4
0.506, 1.743e-6, 4.699e-4
0.507, 1.718e-6, 4.700e-4
0.508, 1.692e-6, 4.702e-4
0.509, 1.665e-6, 4.704e-4
0.510, 1.639e-6, 4.705e-4
0.511, 1.614e-6, 4.707e-4
0.512, 1.589e-6, 4.709e-4
0.513, 1.561e-6, 4.710e-4
0.514, 1.535e-6, 4.712e-4
0.515, 1.512e-6, 4.713e-4
0.516, 1.484e-6, 4.715e-4
0.517, 1.458e-6, 4.716e-4
0.518, 1.432e-6, 4.717e-4
0.519, 1.409e-6, 4.719e-4
0.520, 1.382e-6, 4.720e-4
0.521, 1.358e-6, 4.722e-4
0.522, 1.332e-6, 4.723e-4
0.523, 1.310e-6, 4.724e-4
0.524, 1.283e-6, 4.726e-4
0.525, 1.259e-6, 4.727e-4
0.526, 1.234e-6, 4.728e-4
0.527, 1.213e-6, 4.729e-4
0.528, 1.186e-6, 4.730e-4
0.529, 1.163e-6, 4.732e-4
0.530, 1.138e-6, 4.733e-4
0.531, 1.116e-6, 4.734e-4
0.532, 1.091e-6, 4.735e-4
0.533, 1.069e-6, 4.736e-4
0.534, 1.044e-6, 4.737e-4
0.535, 1.023e-6, 4.738e-4
0.536, 9.988e-7, 4.739e-4
0.537, 9.774e-7, 4.740e-4
0.538, 9.535e-7, 4.741e-4
0.539, 9.331e-7, 4.742e-4
0.540, 9.105e-7, 4.743e-4
0.541, 8.885e-7, 4.744e-4
0.542, 8.664e-7, 4.745e-4
0.543, 8.460e-7, 4.745e-4
0.544, 8.250e-7, 4.746e-4
0.545, 8.045e-7, 4.747e-4
0.546, 7.811e-7, 4.748e-4
0.547, 7.617e-7, 4.749e-4
0.548, 7.387e-7, 4.749e-4
0.549, 7.148e-7, 4.750e-4
0.550, 6.920e-7, 4.751e-4
0.551, 6.722e-7, 4.751e-4
0.552, 6.520e-7, 4.752e-4
0.553, 6.345e-7, 4.753e-4
0.554, 6.142e-7, 4.753e-4
0.555, 5.971e-7, 4.754e-4
0.556, 5.775e-7, 4.755e-4
0.557, 5.603e-7, 4.755e-4
0.558, 5.415e-7, 4.756e-4
0.559, 5.258e-7, 4.756e-4
0.560, 5.068e-7, 4.757e-4
0.561, 4.909e-7, 4.757e-4
0.562, 4.722e-7, 4.758e-4
0.563, 4.569e-7, 4.758e-4
0.564, 4.394e-7, 4.759e-4
0.565, 4.252e-7, 4.759e-4
0.566, 4.085e-7, 4.759e-4
0.567, 3.935e-7, 4.760e-4
0.568, 3.771e-7, 4.760e-4
0.569, 3.631e-7, 4.761e-4
0.570, 3.474e-7, 4.761e-4
0.571, 3.350e-7, 4.761e-4
0.572, 3.189e-7, 4.762e-4
0.573, 3.061e-7, 4.762e-4
0.574, 2.915e-7, 4.762e-4
0.575, 2.786e-7, 4.762e-4
0.576, 2.645e-7, 4.763e-4
0.577, 2.527e-7, 4.763e-4
0.578, 2.394e-7, 4.763e-4
0.579, 2.281e-7, 4.763e-4
0.580, 2.151e-7, 4.764e-4
0.581, 2.045e-7, 4.764e-4
0.582, 1.925e-7, 4.764e-4
0.583, 1.818e-7, 4.764e-4
0.584, 1.693e-7, 4.764e-4
0.585, 1.598e-7, 4.764e-4
0.586, 1.485e-7, 4.765e-4
0.587, 1.401e-7, 4.765e-4
0.588, 1.284e-7, 4.765e-4
0.589, 1.198e-7, 4.765e-4
0.590, 1.088e-7, 4.765e-4
0.591, 1.008e-7, 4.765e-4
0.592, 9.119e-8, 4.765e-4
0.593, 8.266e-8, 4.765e-4
0.594, 7.244e-8, 4.765e-4
0.595, 6.530e-8, 4.766e-4
0.596, 5.547e-8, 4.766e-4
0.597, 4.778e-8, 4.766e-4
0.598, 3.924e-8, 4.766e-4
0.599, 3.052e-8, 4.766e-4
0.600, 2.420e-8, 4.766e-4
0.601, 1.928e-8, 4.766e-4
0.602, 9.951e-9, 4.766e-4
0.603, 2.598e-9, 4.766e-4
0.604, -1.748e-9, 4.766e-4
0.605, -7.278e-9, 4.766e-4
0.606, -1.613e-8, 4.766e-4
0.607, -2.253e-8, 4.766e-4
0.608, -2.635e-8, 4.766e-4
0.609, -3.133e-8, 4.766e-4
0.610, -3.928e-8, 4.766e-4
0.611, -4.550e-8, 4.766e-4
0.612, -4.989e-8, 4.766e-4
0.613, -5.444e-8, 4.765e-4
0.614, -6.025e-8, 4.765e-4
0.615, -6.486e-8, 4.765e-4
0.616, -7.071e-8, 4.765e-4
0.617, -7.346e-8, 4.765e-4
0.618, -7.594e-8, 4.765e-4
0.619, -7.935e-8, 4.765e-4
0.620, -8.543e-8, 4.765e-4
0.621, -9.012e-8, 4.765e-4
0.622, -9.478e-8, 4.765e-4
0.623, -9.784e-8, 4.765e-4
0.624, -1.006e-7, 4.765e-4
0.625, -1.041e-7, 4.764e-4
0.626, -1.092e-7, 4.764e-4
0.627, -1.133e-7, 4.764e-4
0.628, -1.175e-7, 4.764e-4
0.629, -1.202e-7, 4.764e-4
0.630, -1.222e-7, 4.764e-4
0.631, -1.237e-7, 4.764e-4
0.632, -1.261e-7, 4.764e-4
0.633, -1.284e-7, 4.764e-4
0.634, -1.319e-7, 4.763e-4
0.635, -1.355e-7, 4.763e-4
0.636, -1.396e-7, 4.763e-4
0.637, -1.422e-7, 4.763e-4
0.638, -1.447e-7, 4.763e-4
0.639, -1.464e-7, 4.763e-4
0.640, -1.481e-7, 4.763e-4
0.641, -1.494e-7, 4.762e-4
0.642, -1.521e-7, 4.762e-4
0.643, -1.542e-7, 4.762e-4
0.644, -1.566e-7, 4.762e-4
0.645, -1.593e-7, 4.762e-4
0.646, -1.621e-7, 4.762e-4
0.647, -1.640e-7, 4.761e-4
0.648, -1.662e-7, 4.761e-4
0.649, -1.678e-7, 4.761e-4
0.650, -1.690e-7, 4.761e-4
0.651, -1.702e-7, 4.761e-4
0.652, -1.710e-7, 4.761e-4
0.653, -1.717e-7, 4.760e-4
0.654, -1.724e-7, 4.760e-4
0.655, -1.733e-7, 4.760e-4
0.656, -1.743e-7, 4.760e-4
0.657, -1.755e-7, 4.760e-4
0.658, -1.771e-7, 4.760e-4
0.659, -1.784e-7, 4.759e-4
0.660, -1.801e-7, 4.759e-4
0.661, -1.815e-7, 4.759e-4
0.662, -1.835e-7, 4.759e-4
0.663, -1.848e-7, 4.759e-4
0.664, -1.867e-7, 4.758e-4
0.665, -1.881e-7, 4.758e-4
0.666, -1.902e-7, 4.758e-4
0.667, -1.911e-7, 4.758e-4
0.668, -1.923e-7, 4.758e-4
0.669, -1.930e-7, 4.758e-4
0.670, -1.940e-7, 4.757e-4
0.671, -1.948e-7, 4.757e-4
0.672, -1.955e-7, 4.757e-4
0.673, -1.959e-7, 4.757e-4
0.674, -1.970e-7, 4.757e-4
0.675, -1.973e-7, 4.756e-4
0.676, -1.982e-7, 4.756e-4
0.677, -1.990e-7, 4.756e-4
0.678, -2.000e-7, 4.756e-4
0.679, -2.007e-7, 4.756e-4
0.680, -2.021e-7, 4.755e-4
0.681, -2.027e-7, 4.755e-4
0.682, -2.039e-7, 4.755e-4
0.683, -2.049e-7, 4.755e-4
0.684, -2.065e-7, 4.755e-4
0.685, -2.072e-7, 4.754e-4
0.686, -2.086e-7, 4.754e-4
0.687, -2.091e-7, 4.754e-4
0.688, -2.107e-7, 4.754e-4
0.689, -2.113e-7, 4.753e-4
0.690, -2.129e-7, 4.753e-4
0.691, -2.130e-7, 4.753e-4
0.692, -2.143e-7, 4.753e-4
0.693, -2.148e-7, 4.753e-4
0.694, -2.159e-7, 4.752e-4
0.695, -2.164e-7, 4.752e-4
0.696, -2.172e-7, 4.752e-4
0.697, -2.175e-7, 4.752e-4
0.698, -2.182e-7, 4.752e-4
0.699, -2.184e-7, 4.751e-4
0.700, -2.191e-7, 4.751e-4
0.701, -2.194e-7, 4.751e-4
0.702, -2.198e-7, 4.751e-4
0.703, -2.202e-7, 4.750e-4
0.704, -2.206e-7, 4.750e-4
0.705, -2.209e-7, 4.750e-4
0.706, -2.214e-7, 4.750e-4
0.707, -2.217e-7, 4.750e-4
0.708, -2.223e-7, 4.749e-4
0.709, -2.229e-7, 4.749e-4
0.710, -2.233e-7, 4.749e-4
0.711, -2.239e-7, 4.749e-4
0.712, -2.246e-7, 4.748e-4
0.713, -2.251e-7, 4.748e-4
0.714, -2.258e-7, 4.748e-4
0.715, -2.262e-7, 4.748e-4
0.716, -2.271e-7, 4.748e-4
0.717, -2.285e-7, 4.747e-4
0.718, -2.295e-7, 4.747e-4
0.719, -2.299e-7, 4.747e-4
0.720, -2.312e-7, 4.747e-4
0.721, -2.313e-7, 4.746e-4
0.722, -2.333e-7, 4.746e-4
0.723, -2.330e-7, 4.746e-4
0.724, -2.345e-7, 4.746e-4
0.725, -2.352e-7, 4.745e-4
0.726, -2.364e-7, 4.745e-4
0.727, -2.369e-7, 4.745e-4
0.728, -2.380e-7, 4.745e-4
0.729, -2.381e-7, 4.744e-4
0.730, -2.391e-7, 4.744e-4
0.731, -2.396e-7, 4.744e-4
0.732, -2.407e-7, 4.744e-4
0.733, -2.407e-7, 4.744e-4
0.734, -2.417e-7, 4.743e-4
0.735, -2.421e-7, 4.743e-4
0.736, -2.425e-7, 4.743e-4
0.737, -2.428e-7, 4.743e-4
0.738, -2.436e-7, 4.742e-4
0.739, -2.437e-7, 4.742e-4
0.740, -2.444e-7, 4.742e-4
0.741, -2.446e-7, 4.742e-4
0.742, -2.451e-7, 4.741e-4
0.743, -2.453e-7, 4.741e-4
0.744, -2.460e-7, 4.741e-4
0.745, -2.462e-7, 4.741e-4
0.746, -2.469e-7, 4.740e-4
0.747, -2.472e-7, 4.740e-4
0.748, -2.478e-7, 4.740e-4
0.749, -2.480e-7, 4.740e-4
0.750, -2.488e-7, 4.739e-4
0.751, -2.492e-7, 4.739e-4
0.752, -2.499e-7, 4.739e-4
0.753, -2.502e-7, 4.739e-4
0.754, -2.513e-7, 4.738e-4
0.755, -2.516e-7, 4.738e-4
0.756, -2.527e-7, 4.738e-4
0.757, -2.531e-7, 4.738e-4
0.758, -2.541e-7, 4.737e-4
0.759, -2.544e-7, 4.737e-4
0.760, -2.557e-7, 4.737e-4
0.761, -2.563e-7, 4.737e-4
0.762, -2.573e-7, 4.736e-4
0.763, -2.578e-7, 4.736e-4
0.764, -2.586e-7, 4.736e-4
0.765, -2.594e-7, 4.736e-4
0.766, -2.602e-7, 4.735e-4
0.767, -2.608e-7, 4.735e-4
0.768, -2.622e-7, 4.735e-4
0.769, -2.625e-7, 4.734e-4
0.770, -2.632e-7, 4.734e-4
0.771, -2.636e-7, 4.734e-4
0.772, -2.643e-7, 4.734e-4
0.773, -2.647e-7, 4.733e-4
0.774, -2.653e-7, 4.733e-4
0.775, -2.654e-7, 4.733e-4
0.776, -2.663e-7, 4.733e-4
0.777, -2.665e-7, 4.732e-4
0.778, -2.671e-7, 4.732e-4
0.779, -2.672e-7, 4.732e-4
0.780, -2.677e-7, 4.732e-4
0.781, -2.678e-7, 4.731e-4
0.782, -2.682e-7, 4.731e-4
0.783, -2.685e-7, 4.731e-4
0.784, -2.688e-7, 4.731e-4
0.785, -2.690e-7, 4.730e-4
0.786, -2.694e-7, 4.730e-4
0.787, -2.696e-7, 4.730e-4
0.788, -2.698e-7, 4.729e-4
0.789, -2.701e-7, 4.729e-4
0.790, -2.705e-7, 4.729e-4
0.791, -2.707e-7, 4.729e-4
0.792, -2.713e-7, 4.728e-4
0.793, -2.715e-7, 4.728e-4
0.794, -2.718e-7, 4.728e-4
0.795, -2.722e-7, 4.728e-4
0.796, -2.728e-7, 4.727e-4
0.797, -2.732e-7, 4.727e-4
0.798, -2.739e-7, 4.727e-4
0.799, -2.742e-7, 4.726e-4
0.800, -2.746e-7, 4.726e-4
0.801, -2.750e-7, 4.726e-4
0.802, -2.761e-7, 4.726e-4
0.803, -2.761e-7, 4.725e-4
0.804, -2.773e-7, 4.725e-4
0.805, -2.776e-7, 4.725e-4
0.806, -2.785e-7, 4.724e-4
0.807, -2.786e-7, 4.724e-4
0.808, -2.801e-7, 4.724e-4
0.809, -2.801e-7, 4.724e-4
0.810, -2.813e-7, 4.723e-4
0.811, -2.816e-7, 4.723e-4
0.812, -2.828e-7, 4.723e-4
0.813, -2.830e-7, 4.723e-4
0.814, -2.839e-7, 4.722e-4
0.815, -2.844e-7, 4.722e-4
0.816, -2.853e-7, 4.722e-4
0.817, -2.857e-7, 4.721e-4
0.818, -2.868e-7, 4.721e-4
0.819, -2.865e-7, 4.721e-4
0.820, -2.872e-7, 4.721e-4
0.821, -2.875e-7, 4.720e-4
0.822, -2.885e-7, 4.720e-4
0.823, -2.886e-7, 4.720e-4
0.824, -2.895e-7, 4.719e-4
0.825, -2.896e-7, 4.719e-4
0.826, -2.904e-7, 4.719e-4
0.827, -2.906e-7, 4.719e-4
0.828, -2.912e-7, 4.718e-4
0.829, -2.914e-7, 4.718e-4
0.830, -2.920e-7, 4.718e-4
0.831, -2.923e-7, 4.717e-4
0.832, -2.926e-7, 4.717e-4
0.833, -2.926e-7, 4.717e-4
0.834, -2.933e-7, 4.716e-4
0.835, -2.934e-7, 4.716e-4
0.836, -2.940e-7, 4.716e-4
0.837, -2.941e-7, 4.716e-4
0.838, -2.946e-7, 4.715e-4
0.839, -2.948e-7, 4.715e-4
0.840, -2.955e-7, 4.715e-4
0.841, -2.955e-7, 4.714e-4
0.842, -2.961e-7, 4.714e-4
0.843, -2.963e-7, 4.714e-4
0.844, -2.969e-7, 4.714e-4
0.845, -2.969e-7, 4.713e-4
0.846, -2.977e-7, 4.713e-4
0.847, -2.979e-7, 4.713e-4
0.848, -2.987e-7, 4.712e-4
0.849, -2.986e-7, 4.712e-4
0.850, -2.998e-7, 4.712e-4
0.851, -2.998e-7, 4.711e-4
0.852, -3.005e-7, 4.711e-4
0.853, -3.012e-7, 4.711e-4
0.854, -3.021e-7, 4.711e-4
0.855, -3.023e-7, 4.710e-4
0.856, -3.031e-7, 4.710e-4
0.857, -3.032e-7, 4.710e-4
0.858, -3.039e-7, 4.709e-4
0.859, -3.045e-7, 4.709e-4
0.860, -3.052e-7, 4.709e-4
0.861, -3.057e-7, 4.708e-4
0.862, -3.065e-7, 4.708e-4
0.863, -3.068e-7, 4.708e-4
0.864, -3.077e-7, 4.707e-4
0.865, -3.078e-7, 4.707e-4
0.866, -3.089e-7, 4.707e-4
0.867, -3.090e-7, 4.707e-4
0.868, -3.100e-7, 4.706e-4
0.869, -3.102e-7, 4.706e-4
0.870, -3.111e-7, 4.706e-4
0.871, -3.115e-7, 4.705e-4
0.872, -3.120e-7, 4.705e-4
0.873, -3.121e-7, 4.705e-4
0.874, -3.129e-7, 4.704e-4
0.875, -3.130e-7, 4.704e-4
0.876, -3.137e-7, 4.704e-4
0.877, -3.137e-7, 4.703e-4
0.878, -3.143e-7, 4.703e-4
0.879, -3.147e-7, 4.703e-4
0.880, -3.150e-7, 4.702e-4
0.881, -3.150e-7, 4.702e-4
0.882, -3.157e-7, 4.702e-4
0.883, -3.155e-7, 4.702e-4
0.884, -3.161e-7, 4.701e-4
0.885, -3.162e-7, 4.701e-4
0.886, -3.166e-7, 4.701e-4
0.887, -3.167e-7, 4.700e-4
0.888, -3.171e-7, 4.700e-4
0.889, -3.171e-7, 4.700e-4
0.890, -3.174e-7, 4.699e-4
0.891, -3.175e-7, 4.699e-4
0.892, -3.179e-7, 4.699e-4
0.893, -3.179e-7, 4.698e-4
0.894, -3.182e-7, 4.698e-4
0.895, -3.185e-7, 4.698e-4
0.896, -3.186e-7, 4.697e-4
0.897, -3.187e-7, 4.697e-4
0.898, -3.192e-7, 4.697e-4
0.899, -3.191e-7, 4.696e-4
0.900, -3.197e-7, 4.696e-4
0.901, -3.197e-7, 4.696e-4
0.902, -3.201e-7, 4.695e-4
0.903, -3.201e-7, 4.695e-4
0.904, -3.207e-7, 4.695e-4
0.905, -3.206e-7, 4.695e-4
0.906, -3.212e-7, 4.694e-4
0.907, -3.212e-7, 4.694e-4
0.908, -3.218e-7, 4.694e-4
0.909, -3.218e-7, 4.693e-4
0.910, -3.224e-7, 4.693e-4
0.911, -3.225e-7, 4.693e-4
0.912, -3.233e-7, 4.692e-4
0.913, -3.232e-7, 4.692e-4
0.914, -3.240e-7, 4.692e-4
0.915, -3.240e-7, 4.691e-4
0.916, -3.248e-7, 4.691e-4
0.917, -3.251e-7, 4.691e-4
0.918, -3.255e-7, 4.690e-4
0.919, -3.259e-7, 4.690e-4
0.920, -3.267e-7, 4.690e-4
0.921, -3.267e-7, 4.689e-4
0.922, -3.281e-7, 4.689e-4
0.923, -3.278e-7, 4.689e-4
0.924, -3.288e-7, 4.688e-4
0.925, -3.286e-7, 4.688e-4
0.926, -3.297e-7, 4.688e-4
0.927, -3.296e-7, 4.687e-4
0.928, -3.305e-7, 4.687e-4
0.929, -3.302e-7, 4.687e-4
0.930, -3.315e-7, 4.686e-4
0.931, -3.313e-7, 4.686e-4
0.932, -3.320e-7, 4.686e-4
0.933, -3.321e-7, 4.685e-4
0.934, -3.332e-7, 4.685e-4
0.935, -3.330e-7, 4.685e-4
0.936, -3.339e-7, 4.684e-4
0.937, -3.337e-7, 4.684e-4
0.938, -3.347e-7, 4.684e-4
0.939, -3.348e-7, 4.683e-4
0.940, -3.355e-7, 4.683e-4
0.941, -3.351e-7, 4.683e-4
0.942, -3.362e-7, 4.682e-4
0.943, -3.361e-7, 4.682e-4
0.944, -3.371e-7, 4.682e-4
0.945, -3.368e-7, 4.681e-4
0.946, -3.376e-7, 4.681e-4
0.947, -3.373e-7, 4.681e-4
0.948, -3.381e-7, 4.680e-4
0.949, -3.382e-7, 4.680e-4
0.950, -3.386e-7, 4.680e-4
0.951, -3.386e-7, 4.679e-4
0.952, -3.393e-7, 4.679e-4
0.953, -3.393e-7, 4.679e-4
0.954, -3.396e-7, 4.678e-4
0.955, -3.396e-7, 4.678e-4
0.956, -3.403e-7, 4.678e-4
0.957, -3.401e-7, 4.677e-4
0.958, -3.407e-7, 4.677e-4
0.959, -3.407e-7, 4.677e-4
0.960, -3.412e-7, 4.676e-4
0.961, -3.410e-7, 4.676e-4
0.962, -3.416e-7, 4.676e-4
0.963, -3.416e-7, 4.675e-4
0.964, -3.420e-7, 4.675e-4
0.965, -3.420e-7, 4.675e-4
0.966, -3.424e-7, 4.674e-4
0.967, -3.423e-7, 4.674e-4
0.968, -3.428e-7, 4.674e-4
0.969, -3.427e-7, 4.673e-4
0.970, -3.431e-7, 4.673e-4
0.971, -3.430e-7, 4.673e-4
0.972, -3.435e-7, 4.672e-4
0.973, -3.439e-7, 4.672e-4
0.974, -3.441e-7, 4.671e-4
0.975, -3.441e-7, 4.671e-4
0.976, -3.446e-7, 4.671e-4
0.977, -3.444e-7, 4.670e-4
0.978, -3.449e-7, 4.670e-4
0.979, -3.449e-7, 4.670e-4
0.980, -3.454e-7, 4.669e-4
0.981, -3.454e-7, 4.669e-4
0.982, -3.458e-7, 4.669e-4
0.983, -3.458e-7, 4.668e-4
0.984, -3.463e-7, 4.668e-4
0.985, -3.461e-7, 4.668e-4
0.986, -3.467e-7, 4.667e-4
0.987, -3.467e-7, 4.667e-4
0.988, -3.474e-7, 4.667e-4
0.989, -3.473e-7, 4.666e-4
0.990, -3.476e-7, 4.666e-4
0.991, -3.478e-7, 4.666e-4
0.992, -3.483e-7, 4.665e-4
0.993, -3.481e-7, 4.665e-4
0.994, -3.491e-7, 4.665e-4
0.995, -3.489e-7, 4.664e-4
0.996, -3.494e-7, 4.664e-4
0.997, -3.494e-7, 4.664e-4
0.998, -3.499e-7, 4.663e-4
0.999, -3.497e-7, 4.663e-4
1.000, -3.505e-7, 4.662e-4
1.001, -3.505e-7, 4.662e-4
1.002, -3.512e-7, 4.662e-4
1.003, -3.512e-7, 4.661e-4
1.004, -3.519e-7, 4.661e-4
1.005, -3.518e-7, 4.661e-4
1.006, -3.523e-7, 4.660e-4
1.007, -3.523e-7, 4.660e-4
1.008, -3.531e-7, 4.660e-4
1.009, -3.527e-7, 4.659e-4
1.010, -3.538e-7, 4.659e-4
1.011, -3.537e-7, 4.659e-4
1.012, -3.544e-7, 4.658e-4
1.013, -3.543e-7, 4.658e-4
1.014, -3.550e-7, 4.658e-4
1.015, -3.548e-7, 4.657e-4
1.016, -3.557e-7, 4.657e-4
1.017, -3.555e-7, 4.656e-4
1.018, -3.562e-7, 4.656e-4
1.019, -3.562e-7, 4.656e-4
1.020, -3.568e-7, 4.655e-4
1.021, -3.571e-7, 4.655e-4
1.022, -3.576e-7, 4.655e-4
1.023, -3.577e-7, 4.654e-4
1.024, -3.572e-7, 4.654e-4
1.025, -3.571e-7, 4.654e-4
1.026, -3.582e-7, 4.653e-4
1.027, -3.582e-7, 4.653e-4
1.028, -3.589e-7, 4.653e-4
1.029, -3.591e-7, 4.652e-4
1.030, -3.594e-7, 4.652e-4
1.031, -3.594e-7, 4.651e-4
1.032, -3.600e-7, 4.651e-4
1.033, -3.602e-7, 4.651e-4
1.034, -3.606e-7, 4.650e-4
1.035, -3.606e-7, 4.650e-4
1.036, -3.614e-7, 4.650e-4
1.037, -3.614e-7, 4.649e-4
1.038, -3.618e-7, 4.649e-4
1.039, -3.620e-7, 4.649e-4
1.040, -3.624e-7, 4.648e-4
1.041, -3.624e-7, 4.648e-4
1.042, -3.629e-7, 4.647e-4
1.043, -3.628e-7, 4.647e-4
1.044, -3.633e-7, 4.647e-4
1.045, -3.634e-7, 4.646e-4
1.046, -3.637e-7, 4.646e-4
1.047, -3.640e-7, 4.646e-4
1.048, -3.643e-7, 4.645e-4
1.049, -3.643e-7, 4.645e-4
1.050, -3.645e-7, 4.645e-4
1.051, -3.647e-7, 4.644e-4
1.052, -3.650e-7, 4.644e-4
1.053, -3.651e-7, 4.643e-4
1.054, -3.654e-7, 4.643e-4
1.055, -3.654e-7, 4.643e-4
1.056, -3.658e-7, 4.642e-4
1.057, -3.657e-7, 4.642e-4
1.058, -3.661e-7, 4.642e-4
1.059, -3.661e-7, 4.641e-4
1.060, -3.664e-7, 4.641e-4
1.061, -3.666e-7, 4.641e-4
1.062, -3.668e-7, 4.640e-4
1.063, -3.668e-7, 4.640e-4
1.064, -3.671e-7, 4.639e-4
1.065, -3.672e-7, 4.639e-4
1.066, -3.674e-7, 4.639e-4
1.067, -3.676e-7, 4.638e-4
1.068, -3.679e-7, 4.638e-4
1.069, -3.681e-7, 4.638e-4
1.070, -3.684e-7, 4.637e-4
1.071, -3.684e-7, 4.637e-4
1.072, -3.688e-7, 4.636e-4
1.073, -3.689e-7, 4.636e-4
1.074, -3.695e-7, 4.636e-4
1.075, -3.696e-7, 4.635e-4
1.076, -3.702e-7, 4.635e-4
1.077, -3.705e-7, 4.635e-4
1.078, -3.708e-7, 4.634e-4
1.079, -3.709e-7, 4.634e-4
1.080, -3.716e-7, 4.634e-4
1.081, -3.718e-7, 4.633e-4
1.082, -3.725e-7, 4.633e-4
1.083, -3.727e-7, 4.632e-4
1.084, -3.733e-7, 4.632e-4
1.085, -3.734e-7, 4.632e-4
1.086, -3.746e-7, 4.631e-4
1.087, -3.748e-7, 4.631e-4
1.088, -3.755e-7, 4.631e-4
1.089, -3.756e-7, 4.630e-4
1.090, -3.770e-7, 4.630e-4
1.091, -3.775e-7, 4.629e-4
1.092, -3.784e-7, 4.629e-4
1.093, -3.788e-7, 4.629e-4
1.094, -3.797e-7, 4.628e-4
1.095, -3.801e-7, 4.628e-4
1.096, -3.813e-7, 4.628e-4
1.097, -3.815e-7, 4.627e-4
1.098, -3.827e-7, 4.627e-4
1.099, -3.828e-7, 4.626e-4
1.100, -3.761e-7, 4.626e-4
