Nov. 15, 2023   13:24:12
Linear Sweep Voltammetry
File: c:\users\pku\desktop\zqq\lsvo1.txt
Data Source:  Experiment
Instrument Model:  CHI600B
Header: 
Note: 

Init E (V) = -0.287
Final E (V) = 1.1
Scan Rate (V/s) = 0.01
Sample Interval (V) = 0.001
Quiet Time (sec) = 2
Sensitivity (A/V) = 5e-6


Potential/V, Current/A, Charge/C

Segment 1:
-0.286, 2.936e-5, 2.936e-6
-0.285, 3.020e-5, 5.956e-6
-0.284, 2.917e-5, 8.873e-6
-0.283, 2.873e-5, 1.175e-5
-0.282, 3.209e-5, 1.496e-5
-0.281, 3.567e-5, 1.852e-5
-0.280, 3.182e-5, 2.170e-5
-0.279, 2.886e-5, 2.459e-5
-0.278, 3.050e-5, 2.764e-5
-0.277, 3.344e-5, 3.098e-5
-0.276, 3.247e-5, 3.423e-5
-0.275, 3.092e-5, 3.732e-5
-0.274, 3.109e-5, 4.043e-5
-0.273, 3.369e-5, 4.380e-5
-0.272, 3.294e-5, 4.709e-5
-0.271, 3.642e-5, 5.074e-5
-0.270, 3.293e-5, 5.403e-5
-0.269, 2.978e-5, 5.701e-5
-0.268, 2.695e-5, 5.970e-5
-0.267, 2.454e-5, 6.216e-5
-0.266, 2.427e-5, 6.458e-5
-0.265, 2.649e-5, 6.723e-5
-0.264, 2.614e-5, 6.985e-5
-0.263, 2.928e-5, 7.277e-5
-0.262, 3.178e-5, 7.595e-5
-0.261, 3.316e-5, 7.927e-5
-0.260, 2.984e-5, 8.225e-5
-0.259, 2.726e-5, 8.498e-5
-0.258, 2.771e-5, 8.775e-5
-0.257, 2.921e-5, 9.067e-5
-0.256, 3.018e-5, 9.369e-5
-0.255, 2.828e-5, 9.652e-5
-0.254, 2.831e-5, 9.935e-5
-0.253, 2.779e-5, 1.021e-4
-0.252, 2.716e-5, 1.048e-4
-0.251, 2.800e-5, 1.076e-4
-0.250, 2.782e-5, 1.104e-4
-0.249, 2.943e-5, 1.134e-4
-0.248, 3.243e-5, 1.166e-4
-0.247, 3.293e-5, 1.199e-4
-0.246, 3.173e-5, 1.231e-4
-0.245, 3.026e-5, 1.261e-4
-0.244, 2.848e-5, 1.289e-4
-0.243, 2.763e-5, 1.317e-4
-0.242, 2.844e-5, 1.346e-4
-0.241, 3.161e-5, 1.377e-4
-0.240, 3.329e-5, 1.410e-4
-0.239, 3.093e-5, 1.441e-4
-0.238, 2.956e-5, 1.471e-4
-0.237, 2.849e-5, 1.499e-4
-0.236, 2.711e-5, 1.527e-4
-0.235, 2.772e-5, 1.554e-4
-0.234, 2.939e-5, 1.584e-4
-0.233, 2.946e-5, 1.613e-4
-0.232, 2.959e-5, 1.643e-4
-0.231, 2.930e-5, 1.672e-4
-0.230, 2.630e-5, 1.698e-4
-0.229, 2.619e-5, 1.725e-4
-0.228, 2.843e-5, 1.753e-4
-0.227, 3.309e-5, 1.786e-4
-0.226, 3.206e-5, 1.818e-4
-0.225, 2.853e-5, 1.847e-4
-0.224, 2.957e-5, 1.876e-4
-0.223, 3.122e-5, 1.907e-4
-0.222, 2.946e-5, 1.937e-4
-0.221, 2.720e-5, 1.964e-4
-0.220, 2.633e-5, 1.990e-4
-0.219, 2.922e-5, 2.020e-4
-0.218, 2.882e-5, 2.048e-4
-0.217, 2.957e-5, 2.078e-4
-0.216, 3.070e-5, 2.109e-4
-0.215, 3.012e-5, 2.139e-4
-0.214, 3.223e-5, 2.171e-4
-0.213, 2.984e-5, 2.201e-4
-0.212, 2.762e-5, 2.229e-4
-0.211, 2.794e-5, 2.256e-4
-0.210, 2.856e-5, 2.285e-4
-0.209, 2.885e-5, 2.314e-4
-0.208, 2.772e-5, 2.342e-4
-0.207, 2.637e-5, 2.368e-4
-0.206, 2.605e-5, 2.394e-4
-0.205, 2.917e-5, 2.423e-4
-0.204, 2.902e-5, 2.452e-4
-0.203, 3.289e-5, 2.485e-4
-0.202, 2.929e-5, 2.514e-4
-0.201, 2.917e-5, 2.544e-4
-0.200, 3.257e-5, 2.576e-4
-0.199, 3.349e-5, 2.610e-4
-0.198, 3.004e-5, 2.640e-4
-0.197, 2.696e-5, 2.667e-4
-0.196, 2.677e-5, 2.693e-4
-0.195, 2.667e-5, 2.720e-4
-0.194, 2.823e-5, 2.748e-4
-0.193, 3.188e-5, 2.780e-4
-0.192, 3.461e-5, 2.815e-4
-0.191, 3.208e-5, 2.847e-4
-0.190, 3.043e-5, 2.877e-4
-0.189, 3.146e-5, 2.909e-4
-0.188, 3.049e-5, 2.939e-4
-0.187, 3.099e-5, 2.970e-4
-0.186, 3.176e-5, 3.002e-4
-0.185, 2.949e-5, 3.031e-4
-0.184, 2.738e-5, 3.059e-4
-0.183, 2.842e-5, 3.087e-4
-0.182, 2.893e-5, 3.116e-4
-0.181, 2.802e-5, 3.144e-4
-0.180, 2.775e-5, 3.172e-4
-0.179, 2.855e-5, 3.201e-4
-0.178, 2.977e-5, 3.230e-4
-0.177, 3.503e-5, 3.265e-4
-0.176, 3.227e-5, 3.298e-4
-0.175, 3.100e-5, 3.329e-4
-0.174, 3.304e-5, 3.362e-4
-0.173, 3.262e-5, 3.394e-4
-0.172, 3.098e-5, 3.425e-4
-0.171, 3.315e-5, 3.458e-4
-0.170, 3.336e-5, 3.492e-4
-0.169, 3.438e-5, 3.526e-4
-0.168, 3.413e-5, 3.560e-4
-0.167, 2.982e-5, 3.590e-4
-0.166, 2.740e-5, 3.617e-4
-0.165, 2.822e-5, 3.646e-4
-0.164, 2.927e-5, 3.675e-4
-0.163, 2.923e-5, 3.704e-4
-0.162, 2.890e-5, 3.733e-4
-0.161, 2.856e-5, 3.762e-4
-0.160, 2.925e-5, 3.791e-4
-0.159, 2.965e-5, 3.821e-4
-0.158, 3.081e-5, 3.851e-4
-0.157, 2.934e-5, 3.881e-4
-0.156, 2.831e-5, 3.909e-4
-0.155, 2.888e-5, 3.938e-4
-0.154, 2.888e-5, 3.967e-4
-0.153, 2.718e-5, 3.994e-4
-0.152, 2.739e-5, 4.021e-4
-0.151, 2.684e-5, 4.048e-4
-0.150, 2.793e-5, 4.076e-4
-0.149, 2.807e-5, 4.104e-4
-0.148, 2.534e-5, 4.130e-4
-0.147, 2.349e-5, 4.153e-4
-0.146, 2.272e-5, 4.176e-4
-0.145, 2.516e-5, 4.201e-4
-0.144, 2.807e-5, 4.229e-4
-0.143, 3.044e-5, 4.259e-4
-0.142, 3.051e-5, 4.290e-4
-0.141, 3.368e-5, 4.324e-4
-0.140, 3.340e-5, 4.357e-4
-0.139, 3.117e-5, 4.388e-4
-0.138, 2.956e-5, 4.418e-4
-0.137, 2.733e-5, 4.445e-4
-0.136, 2.705e-5, 4.472e-4
-0.135, 2.932e-5, 4.501e-4
-0.134, 2.910e-5, 4.531e-4
-0.133, 2.926e-5, 4.560e-4
-0.132, 3.011e-5, 4.590e-4
-0.131, 2.940e-5, 4.619e-4
-0.130, 2.838e-5, 4.648e-4
-0.129, 2.928e-5, 4.677e-4
-0.128, 2.875e-5, 4.706e-4
-0.127, 2.846e-5, 4.734e-4
-0.126, 2.992e-5, 4.764e-4
-0.125, 2.744e-5, 4.792e-4
-0.124, 2.650e-5, 4.818e-4
-0.123, 2.607e-5, 4.844e-4
-0.122, 2.604e-5, 4.870e-4
-0.121, 2.553e-5, 4.896e-4
-0.120, 2.546e-5, 4.921e-4
-0.119, 2.547e-5, 4.947e-4
-0.118, 2.694e-5, 4.974e-4
-0.117, 2.595e-5, 5.000e-4
-0.116, 2.854e-5, 5.028e-4
-0.115, 3.324e-5, 5.061e-4
-0.114, 3.642e-5, 5.098e-4
-0.113, 3.194e-5, 5.130e-4
-0.112, 2.886e-5, 5.159e-4
-0.111, 2.701e-5, 5.186e-4
-0.110, 2.608e-5, 5.212e-4
-0.109, 2.642e-5, 5.238e-4
-0.108, 3.163e-5, 5.270e-4
-0.107, 3.152e-5, 5.301e-4
-0.106, 3.061e-5, 5.332e-4
-0.105, 2.790e-5, 5.360e-4
-0.104, 3.046e-5, 5.390e-4
-0.103, 3.402e-5, 5.424e-4
-0.102, 3.269e-5, 5.457e-4
-0.101, 3.108e-5, 5.488e-4
-0.100, 2.901e-5, 5.517e-4
-0.099, 2.916e-5, 5.546e-4
-0.098, 2.842e-5, 5.575e-4
-0.097, 2.800e-5, 5.603e-4
-0.096, 2.939e-5, 5.632e-4
-0.095, 2.926e-5, 5.661e-4
-0.094, 2.815e-5, 5.689e-4
-0.093, 3.066e-5, 5.720e-4
-0.092, 3.335e-5, 5.753e-4
-0.091, 2.923e-5, 5.783e-4
-0.090, 2.655e-5, 5.809e-4
-0.089, 2.578e-5, 5.835e-4
-0.088, 2.701e-5, 5.862e-4
-0.087, 2.895e-5, 5.891e-4
-0.086, 2.681e-5, 5.918e-4
-0.085, 2.592e-5, 5.944e-4
-0.084, 2.990e-5, 5.973e-4
-0.083, 2.922e-5, 6.003e-4
-0.082, 3.041e-5, 6.033e-4
-0.081, 3.447e-5, 6.068e-4
-0.080, 3.249e-5, 6.100e-4
-0.079, 2.876e-5, 6.129e-4
-0.078, 2.751e-5, 6.156e-4
-0.077, 2.607e-5, 6.182e-4
-0.076, 2.494e-5, 6.207e-4
-0.075, 2.572e-5, 6.233e-4
-0.074, 2.641e-5, 6.259e-4
-0.073, 2.709e-5, 6.287e-4
-0.072, 3.035e-5, 6.317e-4
-0.071, 2.874e-5, 6.346e-4
-0.070, 2.954e-5, 6.375e-4
-0.069, 2.666e-5, 6.402e-4
-0.068, 3.387e-5, 6.436e-4
-0.067, 3.396e-5, 6.470e-4
-0.066, 3.006e-5, 6.500e-4
-0.065, 2.879e-5, 6.529e-4
-0.064, 2.981e-5, 6.558e-4
-0.063, 2.809e-5, 6.586e-4
-0.062, 2.757e-5, 6.614e-4
-0.061, 2.813e-5, 6.642e-4
-0.060, 2.914e-5, 6.671e-4
-0.059, 3.184e-5, 6.703e-4
-0.058, 3.144e-5, 6.735e-4
-0.057, 2.890e-5, 6.763e-4
-0.056, 2.679e-5, 6.790e-4
-0.055, 2.961e-5, 6.820e-4
-0.054, 3.085e-5, 6.851e-4
-0.053, 2.940e-5, 6.880e-4
-0.052, 2.784e-5, 6.908e-4
-0.051, 2.643e-5, 6.934e-4
-0.050, 2.637e-5, 6.961e-4
-0.049, 2.907e-5, 6.990e-4
-0.048, 3.487e-5, 7.025e-4
-0.047, 3.623e-5, 7.061e-4
-0.046, 3.708e-5, 7.098e-4
-0.045, 3.214e-5, 7.130e-4
-0.044, 2.806e-5, 7.158e-4
-0.043, 2.795e-5, 7.186e-4
-0.042, 2.739e-5, 7.214e-4
-0.041, 3.199e-5, 7.246e-4
-0.040, 3.139e-5, 7.277e-4
-0.039, 3.378e-5, 7.311e-4
-0.038, 3.490e-5, 7.346e-4
-0.037, 3.303e-5, 7.379e-4
-0.036, 3.209e-5, 7.411e-4
-0.035, 3.002e-5, 7.441e-4
-0.034, 3.033e-5, 7.471e-4
-0.033, 2.948e-5, 7.501e-4
-0.032, 2.823e-5, 7.529e-4
-0.031, 2.851e-5, 7.557e-4
-0.030, 2.930e-5, 7.587e-4
-0.029, 2.930e-5, 7.616e-4
-0.028, 2.790e-5, 7.644e-4
-0.027, 2.788e-5, 7.672e-4
-0.026, 2.767e-5, 7.699e-4
-0.025, 2.837e-5, 7.728e-4
-0.024, 2.657e-5, 7.754e-4
-0.023, 2.576e-5, 7.780e-4
-0.022, 2.500e-5, 7.805e-4
-0.021, 2.405e-5, 7.829e-4
-0.020, 2.451e-5, 7.854e-4
-0.019, 2.685e-5, 7.880e-4
-0.018, 2.684e-5, 7.907e-4
-0.017, 3.067e-5, 7.938e-4
-0.016, 3.768e-5, 7.976e-4
-0.015, 3.774e-5, 8.013e-4
-0.014, 3.209e-5, 8.045e-4
-0.013, 3.021e-5, 8.076e-4
-0.012, 3.330e-5, 8.109e-4
-0.011, 3.024e-5, 8.139e-4
-0.010, 2.733e-5, 8.167e-4
-0.009, 2.755e-5, 8.194e-4
-0.008, 2.855e-5, 8.223e-4
-0.007, 2.719e-5, 8.250e-4
-0.006, 2.595e-5, 8.276e-4
-0.005, 2.536e-5, 8.301e-4
-0.004, 2.634e-5, 8.328e-4
-0.003, 2.589e-5, 8.353e-4
-0.002, 2.801e-5, 8.381e-4
-0.001, 3.280e-5, 8.414e-4
-0.000, 3.323e-5, 8.447e-4
0.001, 3.452e-5, 8.482e-4
0.002, 3.052e-5, 8.512e-4
0.003, 2.965e-5, 8.542e-4
0.004, 3.226e-5, 8.574e-4
0.005, 2.988e-5, 8.604e-4
0.006, 2.884e-5, 8.633e-4
0.007, 2.768e-5, 8.661e-4
0.008, 2.796e-5, 8.689e-4
0.009, 2.760e-5, 8.716e-4
0.010, 3.078e-5, 8.747e-4
0.011, 3.025e-5, 8.777e-4
0.012, 2.868e-5, 8.806e-4
0.013, 2.796e-5, 8.834e-4
0.014, 2.835e-5, 8.862e-4
0.015, 2.748e-5, 8.890e-4
0.016, 2.648e-5, 8.916e-4
0.017, 2.637e-5, 8.943e-4
0.018, 2.858e-5, 8.971e-4
0.019, 2.902e-5, 9.000e-4
0.020, 2.849e-5, 9.029e-4
0.021, 2.980e-5, 9.059e-4
0.022, 2.695e-5, 9.086e-4
0.023, 2.589e-5, 9.111e-4
0.024, 2.859e-5, 9.140e-4
0.025, 2.905e-5, 9.169e-4
0.026, 2.841e-5, 9.197e-4
0.027, 2.736e-5, 9.225e-4
0.028, 2.740e-5, 9.252e-4
0.029, 2.766e-5, 9.280e-4
0.030, 2.790e-5, 9.308e-4
0.031, 2.596e-5, 9.334e-4
0.032, 2.542e-5, 9.359e-4
0.033, 2.528e-5, 9.384e-4
0.034, 2.684e-5, 9.411e-4
0.035, 2.857e-5, 9.440e-4
0.036, 2.929e-5, 9.469e-4
0.037, 2.934e-5, 9.498e-4
0.038, 2.884e-5, 9.527e-4
0.039, 2.886e-5, 9.556e-4
0.040, 2.999e-5, 9.586e-4
0.041, 3.229e-5, 9.618e-4
0.042, 2.987e-5, 9.648e-4
0.043, 3.035e-5, 9.679e-4
0.044, 3.291e-5, 9.712e-4
0.045, 3.327e-5, 9.745e-4
0.046, 3.097e-5, 9.776e-4
0.047, 3.199e-5, 9.808e-4
0.048, 3.059e-5, 9.838e-4
0.049, 2.918e-5, 9.868e-4
0.050, 2.800e-5, 9.896e-4
0.051, 2.695e-5, 9.923e-4
0.052, 2.764e-5, 9.950e-4
0.053, 2.645e-5, 9.977e-4
0.054, 2.641e-5, 1.000e-3
0.055, 2.794e-5, 1.003e-3
0.056, 2.972e-5, 1.006e-3
0.057, 3.058e-5, 1.009e-3
0.058, 3.001e-5, 1.012e-3
0.059, 2.855e-5, 1.015e-3
0.060, 2.758e-5, 1.018e-3
0.061, 2.886e-5, 1.021e-3
0.062, 2.910e-5, 1.024e-3
0.063, 3.291e-5, 1.027e-3
0.064, 3.563e-5, 1.030e-3
0.065, 3.191e-5, 1.034e-3
0.066, 2.898e-5, 1.036e-3
0.067, 2.817e-5, 1.039e-3
0.068, 3.132e-5, 1.042e-3
0.069, 3.065e-5, 1.045e-3
0.070, 2.934e-5, 1.048e-3
0.071, 2.886e-5, 1.051e-3
0.072, 2.674e-5, 1.054e-3
0.073, 2.486e-5, 1.056e-3
0.074, 2.494e-5, 1.059e-3
0.075, 2.720e-5, 1.062e-3
0.076, 2.598e-5, 1.064e-3
0.077, 2.598e-5, 1.067e-3
0.078, 2.596e-5, 1.069e-3
0.079, 2.767e-5, 1.072e-3
0.080, 3.073e-5, 1.075e-3
0.081, 3.268e-5, 1.079e-3
0.082, 3.035e-5, 1.082e-3
0.083, 2.712e-5, 1.084e-3
0.084, 2.661e-5, 1.087e-3
0.085, 2.636e-5, 1.090e-3
0.086, 2.899e-5, 1.093e-3
0.087, 3.286e-5, 1.096e-3
0.088, 3.047e-5, 1.099e-3
0.089, 2.874e-5, 1.102e-3
0.090, 2.934e-5, 1.105e-3
0.091, 2.747e-5, 1.107e-3
0.092, 2.670e-5, 1.110e-3
0.093, 2.837e-5, 1.113e-3
0.094, 2.718e-5, 1.116e-3
0.095, 2.652e-5, 1.118e-3
0.096, 2.653e-5, 1.121e-3
0.097, 2.761e-5, 1.124e-3
0.098, 2.915e-5, 1.127e-3
0.099, 2.811e-5, 1.129e-3
0.100, 2.818e-5, 1.132e-3
0.101, 2.759e-5, 1.135e-3
0.102, 2.784e-5, 1.138e-3
0.103, 2.688e-5, 1.140e-3
0.104, 2.526e-5, 1.143e-3
0.105, 2.517e-5, 1.146e-3
0.106, 2.630e-5, 1.148e-3
0.107, 2.801e-5, 1.151e-3
0.108, 2.787e-5, 1.154e-3
0.109, 2.686e-5, 1.156e-3
0.110, 2.799e-5, 1.159e-3
0.111, 3.418e-5, 1.163e-3
0.112, 2.960e-5, 1.166e-3
0.113, 2.873e-5, 1.168e-3
0.114, 2.877e-5, 1.171e-3
0.115, 2.664e-5, 1.174e-3
0.116, 2.572e-5, 1.177e-3
0.117, 2.548e-5, 1.179e-3
0.118, 2.564e-5, 1.182e-3
0.119, 2.563e-5, 1.184e-3
0.120, 2.415e-5, 1.187e-3
0.121, 2.518e-5, 1.189e-3
0.122, 2.555e-5, 1.192e-3
0.123, 2.565e-5, 1.194e-3
0.124, 2.623e-5, 1.197e-3
0.125, 2.590e-5, 1.200e-3
0.126, 3.106e-5, 1.203e-3
0.127, 3.025e-5, 1.206e-3
0.128, 2.680e-5, 1.208e-3
0.129, 2.522e-5, 1.211e-3
0.130, 2.670e-5, 1.214e-3
0.131, 2.799e-5, 1.216e-3
0.132, 3.160e-5, 1.219e-3
0.133, 3.154e-5, 1.223e-3
0.134, 2.910e-5, 1.226e-3
0.135, 2.597e-5, 1.228e-3
0.136, 2.491e-5, 1.231e-3
0.137, 2.549e-5, 1.233e-3
0.138, 2.634e-5, 1.236e-3
0.139, 2.626e-5, 1.238e-3
0.140, 2.708e-5, 1.241e-3
0.141, 2.846e-5, 1.244e-3
0.142, 3.119e-5, 1.247e-3
0.143, 2.898e-5, 1.250e-3
0.144, 2.596e-5, 1.253e-3
0.145, 2.699e-5, 1.255e-3
0.146, 2.901e-5, 1.258e-3
0.147, 2.632e-5, 1.261e-3
0.148, 2.548e-5, 1.263e-3
0.149, 2.527e-5, 1.266e-3
0.150, 2.618e-5, 1.269e-3
0.151, 2.498e-5, 1.271e-3
0.152, 2.460e-5, 1.274e-3
0.153, 2.525e-5, 1.276e-3
0.154, 2.500e-5, 1.279e-3
0.155, 2.500e-5, 1.281e-3
0.156, 2.461e-5, 1.283e-3
0.157, 2.394e-5, 1.286e-3
0.158, 2.481e-5, 1.288e-3
0.159, 2.795e-5, 1.291e-3
0.160, 2.686e-5, 1.294e-3
0.161, 2.605e-5, 1.296e-3
0.162, 2.711e-5, 1.299e-3
0.163, 2.813e-5, 1.302e-3
0.164, 2.643e-5, 1.305e-3
0.165, 2.755e-5, 1.307e-3
0.166, 2.776e-5, 1.310e-3
0.167, 2.692e-5, 1.313e-3
0.168, 2.479e-5, 1.315e-3
0.169, 2.337e-5, 1.318e-3
0.170, 2.464e-5, 1.320e-3
0.171, 2.537e-5, 1.323e-3
0.172, 2.408e-5, 1.325e-3
0.173, 2.385e-5, 1.327e-3
0.174, 2.559e-5, 1.330e-3
0.175, 2.687e-5, 1.333e-3
0.176, 2.700e-5, 1.335e-3
0.177, 2.682e-5, 1.338e-3
0.178, 2.659e-5, 1.341e-3
0.179, 2.606e-5, 1.343e-3
0.180, 2.575e-5, 1.346e-3
0.181, 2.487e-5, 1.348e-3
0.182, 2.546e-5, 1.351e-3
0.183, 2.455e-5, 1.353e-3
0.184, 2.335e-5, 1.356e-3
0.185, 2.294e-5, 1.358e-3
0.186, 2.318e-5, 1.360e-3
0.187, 2.427e-5, 1.363e-3
0.188, 2.354e-5, 1.365e-3
0.189, 2.358e-5, 1.368e-3
0.190, 2.369e-5, 1.370e-3
0.191, 2.497e-5, 1.372e-3
0.192, 2.460e-5, 1.375e-3
0.193, 2.335e-5, 1.377e-3
0.194, 2.121e-5, 1.379e-3
0.195, 2.050e-5, 1.381e-3
0.196, 2.076e-5, 1.383e-3
0.197, 2.199e-5, 1.386e-3
0.198, 2.478e-5, 1.388e-3
0.199, 2.510e-5, 1.391e-3
0.200, 2.603e-5, 1.393e-3
0.201, 2.536e-5, 1.396e-3
0.202, 2.446e-5, 1.398e-3
0.203, 2.316e-5, 1.400e-3
0.204, 2.248e-5, 1.403e-3
0.205, 2.237e-5, 1.405e-3
0.206, 2.254e-5, 1.407e-3
0.207, 2.393e-5, 1.410e-3
0.208, 2.337e-5, 1.412e-3
0.209, 2.221e-5, 1.414e-3
0.210, 2.220e-5, 1.416e-3
0.211, 2.172e-5, 1.419e-3
0.212, 2.075e-5, 1.421e-3
0.213, 2.083e-5, 1.423e-3
0.214, 2.153e-5, 1.425e-3
0.215, 2.291e-5, 1.427e-3
0.216, 2.184e-5, 1.429e-3
0.217, 2.194e-5, 1.432e-3
0.218, 2.456e-5, 1.434e-3
0.219, 2.551e-5, 1.437e-3
0.220, 2.587e-5, 1.439e-3
0.221, 2.453e-5, 1.442e-3
0.222, 2.472e-5, 1.444e-3
0.223, 2.459e-5, 1.447e-3
0.224, 2.331e-5, 1.449e-3
0.225, 2.246e-5, 1.451e-3
0.226, 2.147e-5, 1.453e-3
0.227, 2.122e-5, 1.455e-3
0.228, 2.147e-5, 1.458e-3
0.229, 2.251e-5, 1.460e-3
0.230, 2.229e-5, 1.462e-3
0.231, 2.117e-5, 1.464e-3
0.232, 2.166e-5, 1.466e-3
0.233, 2.394e-5, 1.469e-3
0.234, 2.419e-5, 1.471e-3
0.235, 2.431e-5, 1.474e-3
0.236, 2.259e-5, 1.476e-3
0.237, 2.150e-5, 1.478e-3
0.238, 2.217e-5, 1.480e-3
0.239, 2.339e-5, 1.483e-3
0.240, 2.395e-5, 1.485e-3
0.241, 2.314e-5, 1.487e-3
0.242, 2.235e-5, 1.489e-3
0.243, 2.268e-5, 1.492e-3
0.244, 2.248e-5, 1.494e-3
0.245, 2.160e-5, 1.496e-3
0.246, 2.119e-5, 1.498e-3
0.247, 2.091e-5, 1.500e-3
0.248, 2.050e-5, 1.502e-3
0.249, 2.072e-5, 1.504e-3
0.250, 2.052e-5, 1.507e-3
0.251, 2.143e-5, 1.509e-3
0.252, 2.187e-5, 1.511e-3
0.253, 2.043e-5, 1.513e-3
0.254, 2.094e-5, 1.515e-3
0.255, 2.163e-5, 1.517e-3
0.256, 2.230e-5, 1.519e-3
0.257, 2.167e-5, 1.522e-3
0.258, 2.129e-5, 1.524e-3
0.259, 2.221e-5, 1.526e-3
0.260, 2.107e-5, 1.528e-3
0.261, 2.086e-5, 1.530e-3
0.262, 2.154e-5, 1.532e-3
0.263, 2.039e-5, 1.534e-3
0.264, 2.030e-5, 1.536e-3
0.265, 2.035e-5, 1.538e-3
0.266, 2.026e-5, 1.540e-3
0.267, 2.199e-5, 1.543e-3
0.268, 2.120e-5, 1.545e-3
0.269, 1.948e-5, 1.547e-3
0.270, 1.937e-5, 1.549e-3
0.271, 1.942e-5, 1.551e-3
0.272, 1.982e-5, 1.552e-3
0.273, 1.935e-5, 1.554e-3
0.274, 2.009e-5, 1.556e-3
0.275, 2.121e-5, 1.559e-3
0.276, 2.162e-5, 1.561e-3
0.277, 2.188e-5, 1.563e-3
0.278, 2.082e-5, 1.565e-3
0.279, 1.933e-5, 1.567e-3
0.280, 1.976e-5, 1.569e-3
0.281, 1.942e-5, 1.571e-3
0.282, 1.863e-5, 1.573e-3
0.283, 1.844e-5, 1.575e-3
0.284, 2.057e-5, 1.577e-3
0.285, 2.003e-5, 1.579e-3
0.286, 1.838e-5, 1.580e-3
0.287, 1.722e-5, 1.582e-3
0.288, 1.729e-5, 1.584e-3
0.289, 1.729e-5, 1.586e-3
0.290, 1.746e-5, 1.587e-3
0.291, 1.719e-5, 1.589e-3
0.292, 1.659e-5, 1.591e-3
0.293, 1.640e-5, 1.592e-3
0.294, 1.743e-5, 1.594e-3
0.295, 1.752e-5, 1.596e-3
0.296, 1.712e-5, 1.598e-3
0.297, 1.680e-5, 1.599e-3
0.298, 1.658e-5, 1.601e-3
0.299, 1.689e-5, 1.603e-3
0.300, 1.692e-5, 1.604e-3
0.301, 1.626e-5, 1.606e-3
0.302, 1.642e-5, 1.608e-3
0.303, 1.637e-5, 1.609e-3
0.304, 1.678e-5, 1.611e-3
0.305, 1.829e-5, 1.613e-3
0.306, 1.737e-5, 1.614e-3
0.307, 1.649e-5, 1.616e-3
0.308, 1.634e-5, 1.618e-3
0.309, 1.642e-5, 1.619e-3
0.310, 1.630e-5, 1.621e-3
0.311, 1.660e-5, 1.623e-3
0.312, 1.613e-5, 1.624e-3
0.313, 1.570e-5, 1.626e-3
0.314, 1.564e-5, 1.627e-3
0.315, 1.543e-5, 1.629e-3
0.316, 1.514e-5, 1.630e-3
0.317, 1.474e-5, 1.632e-3
0.318, 1.471e-5, 1.633e-3
0.319, 1.475e-5, 1.635e-3
0.320, 1.442e-5, 1.636e-3
0.321, 1.399e-5, 1.638e-3
0.322, 1.459e-5, 1.639e-3
0.323, 1.545e-5, 1.641e-3
0.324, 1.507e-5, 1.642e-3
0.325, 1.478e-5, 1.644e-3
0.326, 1.512e-5, 1.645e-3
0.327, 1.494e-5, 1.647e-3
0.328, 1.433e-5, 1.648e-3
0.329, 1.396e-5, 1.650e-3
0.330, 1.361e-5, 1.651e-3
0.331, 1.351e-5, 1.652e-3
0.332, 1.302e-5, 1.654e-3
0.333, 1.265e-5, 1.655e-3
0.334, 1.245e-5, 1.656e-3
0.335, 1.227e-5, 1.657e-3
0.336, 1.263e-5, 1.659e-3
0.337, 1.264e-5, 1.660e-3
0.338, 1.261e-5, 1.661e-3
0.339, 1.220e-5, 1.662e-3
0.340, 1.268e-5, 1.664e-3
0.341, 1.298e-5, 1.665e-3
0.342, 1.255e-5, 1.666e-3
0.343, 1.241e-5, 1.667e-3
0.344, 1.235e-5, 1.669e-3
0.345, 1.178e-5, 1.670e-3
0.346, 1.153e-5, 1.671e-3
0.347, 1.131e-5, 1.672e-3
0.348, 1.114e-5, 1.673e-3
0.349, 1.096e-5, 1.674e-3
0.350, 1.073e-5, 1.675e-3
0.351, 1.060e-5, 1.676e-3
0.352, 1.063e-5, 1.677e-3
0.353, 1.067e-5, 1.679e-3
0.354, 1.056e-5, 1.680e-3
0.355, 1.038e-5, 1.681e-3
0.356, 1.019e-5, 1.682e-3
0.357, 1.016e-5, 1.683e-3
0.358, 1.014e-5, 1.684e-3
0.359, 9.994e-6, 1.685e-3
0.360, 9.920e-6, 1.686e-3
0.361, 9.759e-6, 1.687e-3
0.362, 9.423e-6, 1.688e-3
0.363, 9.185e-6, 1.689e-3
0.364, 9.047e-6, 1.689e-3
0.365, 9.244e-6, 1.690e-3
0.366, 9.300e-6, 1.691e-3
0.367, 9.183e-6, 1.692e-3
0.368, 9.112e-6, 1.693e-3
0.369, 8.961e-6, 1.694e-3
0.370, 8.770e-6, 1.695e-3
0.371, 8.504e-6, 1.696e-3
0.372, 8.316e-6, 1.697e-3
0.373, 8.304e-6, 1.697e-3
0.374, 8.292e-6, 1.698e-3
0.375, 8.292e-6, 1.699e-3
0.376, 8.142e-6, 1.700e-3
0.377, 8.170e-6, 1.701e-3
0.378, 7.986e-6, 1.701e-3
0.379, 7.742e-6, 1.702e-3
0.380, 7.516e-6, 1.703e-3
0.381, 7.336e-6, 1.704e-3
0.382, 7.143e-6, 1.704e-3
0.383, 6.989e-6, 1.705e-3
0.384, 6.906e-6, 1.706e-3
0.385, 6.886e-6, 1.707e-3
0.386, 6.746e-6, 1.707e-3
0.387, 6.777e-6, 1.708e-3
0.388, 6.722e-6, 1.709e-3
0.389, 6.611e-6, 1.709e-3
0.390, 6.470e-6, 1.710e-3
0.391, 6.413e-6, 1.711e-3
0.392, 6.369e-6, 1.711e-3
0.393, 6.243e-6, 1.712e-3
0.394, 6.087e-6, 1.712e-3
0.395, 5.912e-6, 1.713e-3
0.396, 5.801e-6, 1.714e-3
0.397, 5.755e-6, 1.714e-3
0.398, 5.759e-6, 1.715e-3
0.399, 5.644e-6, 1.715e-3
0.400, 5.513e-6, 1.716e-3
0.401, 5.443e-6, 1.716e-3
0.402, 5.319e-6, 1.717e-3
0.403, 5.193e-6, 1.717e-3
0.404, 5.190e-6, 1.718e-3
0.405, 5.136e-6, 1.718e-3
0.406, 5.091e-6, 1.719e-3
0.407, 5.017e-6, 1.719e-3
0.408, 4.931e-6, 1.720e-3
0.409, 4.843e-6, 1.720e-3
0.410, 4.780e-6, 1.721e-3
0.411, 4.704e-6, 1.721e-3
0.412, 4.619e-6, 1.722e-3
0.413, 4.500e-6, 1.722e-3
0.414, 4.403e-6, 1.723e-3
0.415, 4.371e-6, 1.723e-3
0.416, 4.281e-6, 1.724e-3
0.417, 4.213e-6, 1.724e-3
0.418, 4.126e-6, 1.724e-3
0.419, 4.020e-6, 1.725e-3
0.420, 3.928e-6, 1.725e-3
0.421, 3.853e-6, 1.726e-3
0.422, 3.767e-6, 1.726e-3
0.423, 3.695e-6, 1.726e-3
0.424, 3.626e-6, 1.727e-3
0.425, 3.559e-6, 1.727e-3
0.426, 3.497e-6, 1.727e-3
0.427, 3.446e-6, 1.728e-3
0.428, 3.374e-6, 1.728e-3
0.429, 3.314e-6, 1.728e-3
0.430, 3.268e-6, 1.729e-3
0.431, 3.216e-6, 1.729e-3
0.432, 3.181e-6, 1.729e-3
0.433, 3.118e-6, 1.730e-3
0.434, 3.073e-6, 1.730e-3
0.435, 3.018e-6, 1.730e-3
0.436, 2.958e-6, 1.731e-3
0.437, 2.895e-6, 1.731e-3
0.438, 2.839e-6, 1.731e-3
0.439, 2.805e-6, 1.731e-3
0.440, 2.739e-6, 1.732e-3
0.441, 2.677e-6, 1.732e-3
0.442, 2.629e-6, 1.732e-3
0.443, 2.572e-6, 1.733e-3
0.444, 2.526e-6, 1.733e-3
0.445, 2.476e-6, 1.733e-3
0.446, 2.434e-6, 1.733e-3
0.447, 2.386e-6, 1.734e-3
0.448, 2.328e-6, 1.734e-3
0.449, 2.269e-6, 1.734e-3
0.450, 2.224e-6, 1.734e-3
0.451, 2.180e-6, 1.734e-3
0.452, 2.136e-6, 1.735e-3
0.453, 2.101e-6, 1.735e-3
0.454, 2.056e-6, 1.735e-3
0.455, 2.019e-6, 1.735e-3
0.456, 1.990e-6, 1.735e-3
0.457, 1.949e-6, 1.736e-3
0.458, 1.914e-6, 1.736e-3
0.459, 1.872e-6, 1.736e-3
0.460, 1.825e-6, 1.736e-3
0.461, 1.780e-6, 1.736e-3
0.462, 1.740e-6, 1.737e-3
0.463, 1.705e-6, 1.737e-3
0.464, 1.672e-6, 1.737e-3
0.465, 1.645e-6, 1.737e-3
0.466, 1.610e-6, 1.737e-3
0.467, 1.571e-6, 1.737e-3
0.468, 1.540e-6, 1.738e-3
0.469, 1.513e-6, 1.738e-3
0.470, 1.481e-6, 1.738e-3
0.471, 1.455e-6, 1.738e-3
0.472, 1.425e-6, 1.738e-3
0.473, 1.390e-6, 1.738e-3
0.474, 1.358e-6, 1.738e-3
0.475, 1.328e-6, 1.739e-3
0.476, 1.311e-6, 1.739e-3
0.477, 1.285e-6, 1.739e-3
0.478, 1.255e-6, 1.739e-3
0.479, 1.224e-6, 1.739e-3
0.480, 1.197e-6, 1.739e-3
0.481, 1.168e-6, 1.739e-3
0.482, 1.144e-6, 1.739e-3
0.483, 1.116e-6, 1.739e-3
0.484, 1.094e-6, 1.740e-3
0.485, 1.067e-6, 1.740e-3
0.486, 1.046e-6, 1.740e-3
0.487, 1.023e-6, 1.740e-3
0.488, 1.001e-6, 1.740e-3
0.489, 9.756e-7, 1.740e-3
0.490, 9.547e-7, 1.740e-3
0.491, 9.355e-7, 1.740e-3
0.492, 9.192e-7, 1.740e-3
0.493, 8.959e-7, 1.740e-3
0.494, 8.743e-7, 1.741e-3
0.495, 8.511e-7, 1.741e-3
0.496, 8.337e-7, 1.741e-3
0.497, 8.130e-7, 1.741e-3
0.498, 7.929e-7, 1.741e-3
0.499, 7.737e-7, 1.741e-3
0.500, 7.574e-7, 1.741e-3
0.501, 7.371e-7, 1.741e-3
0.502, 7.163e-7, 1.741e-3
0.503, 6.971e-7, 1.741e-3
0.504, 6.837e-7, 1.741e-3
0.505, 6.661e-7, 1.741e-3
0.506, 6.504e-7, 1.741e-3
0.507, 6.324e-7, 1.742e-3
0.508, 6.184e-7, 1.742e-3
0.509, 6.016e-7, 1.742e-3
0.510, 5.865e-7, 1.742e-3
0.511, 5.698e-7, 1.742e-3
0.512, 5.573e-7, 1.742e-3
0.513, 5.419e-7, 1.742e-3
0.514, 5.300e-7, 1.742e-3
0.515, 5.151e-7, 1.742e-3
0.516, 5.040e-7, 1.742e-3
0.517, 4.899e-7, 1.742e-3
0.518, 4.786e-7, 1.742e-3
0.519, 4.646e-7, 1.742e-3
0.520, 4.537e-7, 1.742e-3
0.521, 4.404e-7, 1.742e-3
0.522, 4.294e-7, 1.742e-3
0.523, 4.158e-7, 1.742e-3
0.524, 4.066e-7, 1.742e-3
0.525, 3.941e-7, 1.742e-3
0.526, 3.844e-7, 1.742e-3
0.527, 3.713e-7, 1.743e-3
0.528, 3.627e-7, 1.743e-3
0.529, 3.503e-7, 1.743e-3
0.530, 3.411e-7, 1.743e-3
0.531, 3.305e-7, 1.743e-3
0.532, 3.220e-7, 1.743e-3
0.533, 3.109e-7, 1.743e-3
0.534, 3.018e-7, 1.743e-3
0.535, 2.921e-7, 1.743e-3
0.536, 2.849e-7, 1.743e-3
0.537, 2.736e-7, 1.743e-3
0.538, 2.657e-7, 1.743e-3
0.539, 2.569e-7, 1.743e-3
0.540, 2.501e-7, 1.743e-3
0.541, 2.407e-7, 1.743e-3
0.542, 2.325e-7, 1.743e-3
0.543, 2.231e-7, 1.743e-3
0.544, 2.177e-7, 1.743e-3
0.545, 2.086e-7, 1.743e-3
0.546, 2.012e-7, 1.743e-3
0.547, 1.936e-7, 1.743e-3
0.548, 1.884e-7, 1.743e-3
0.549, 1.787e-7, 1.743e-3
0.550, 1.722e-7, 1.743e-3
0.551, 1.652e-7, 1.743e-3
0.552, 1.601e-7, 1.743e-3
0.553, 1.515e-7, 1.743e-3
0.554, 1.465e-7, 1.743e-3
0.555, 1.399e-7, 1.743e-3
0.556, 1.355e-7, 1.743e-3
0.557, 1.275e-7, 1.743e-3
0.558, 1.216e-7, 1.743e-3
0.559, 1.151e-7, 1.743e-3
0.560, 1.112e-7, 1.743e-3
0.561, 1.036e-7, 1.743e-3
0.562, 9.886e-8, 1.743e-3
0.563, 9.342e-8, 1.743e-3
0.564, 8.980e-8, 1.743e-3
0.565, 8.170e-8, 1.743e-3
0.566, 7.688e-8, 1.743e-3
0.567, 7.154e-8, 1.743e-3
0.568, 6.851e-8, 1.743e-3
0.569, 6.164e-8, 1.743e-3
0.570, 5.753e-8, 1.743e-3
0.571, 5.149e-8, 1.743e-3
0.572, 4.807e-8, 1.743e-3
0.573, 4.178e-8, 1.743e-3
0.574, 3.714e-8, 1.743e-3
0.575, 3.153e-8, 1.743e-3
0.576, 2.782e-8, 1.743e-3
0.577, 2.417e-8, 1.743e-3
0.578, 2.140e-8, 1.743e-3
0.579, 1.815e-8, 1.743e-3
0.580, 1.423e-8, 1.743e-3
0.581, 7.286e-9, 1.743e-3
0.582, 2.769e-9, 1.743e-3
0.583, 3.820e-10, 1.743e-3
0.584, -1.530e-9, 1.743e-3
0.585, -4.634e-9, 1.743e-3
0.586, -9.894e-9, 1.743e-3
0.587, -1.410e-8, 1.743e-3
0.588, -1.816e-8, 1.743e-3
0.589, -2.220e-8, 1.743e-3
0.590, -2.477e-8, 1.743e-3
0.591, -2.651e-8, 1.743e-3
0.592, -2.820e-8, 1.743e-3
0.593, -3.242e-8, 1.743e-3
0.594, -3.782e-8, 1.743e-3
0.595, -4.142e-8, 1.743e-3
0.596, -4.430e-8, 1.743e-3
0.597, -4.812e-8, 1.743e-3
0.598, -5.041e-8, 1.743e-3
0.599, -5.276e-8, 1.743e-3
0.600, -5.497e-8, 1.743e-3
0.601, -5.968e-8, 1.743e-3
0.602, -6.399e-8, 1.743e-3
0.603, -6.651e-8, 1.743e-3
0.604, -6.891e-8, 1.743e-3
0.605, -7.188e-8, 1.743e-3
0.606, -7.347e-8, 1.743e-3
0.607, -7.450e-8, 1.743e-3
0.608, -7.559e-8, 1.743e-3
0.609, -7.828e-8, 1.743e-3
0.610, -8.142e-8, 1.743e-3
0.611, -8.387e-8, 1.743e-3
0.612, -8.623e-8, 1.743e-3
0.613, -9.123e-8, 1.743e-3
0.614, -9.349e-8, 1.743e-3
0.615, -9.459e-8, 1.743e-3
0.616, -9.638e-8, 1.743e-3
0.617, -9.906e-8, 1.743e-3
0.618, -1.011e-7, 1.743e-3
0.619, -1.024e-7, 1.743e-3
0.620, -1.039e-7, 1.743e-3
0.621, -1.082e-7, 1.743e-3
0.622, -1.113e-7, 1.743e-3
0.623, -1.130e-7, 1.743e-3
0.624, -1.152e-7, 1.743e-3
0.625, -1.187e-7, 1.743e-3
0.626, -1.202e-7, 1.743e-3
0.627, -1.210e-7, 1.743e-3
0.628, -1.219e-7, 1.743e-3
0.629, -1.239e-7, 1.743e-3
0.630, -1.253e-7, 1.743e-3
0.631, -1.261e-7, 1.743e-3
0.632, -1.271e-7, 1.743e-3
0.633, -1.309e-7, 1.743e-3
0.634, -1.334e-7, 1.743e-3
0.635, -1.347e-7, 1.743e-3
0.636, -1.366e-7, 1.743e-3
0.637, -1.408e-7, 1.743e-3
0.638, -1.423e-7, 1.743e-3
0.639, -1.433e-7, 1.743e-3
0.640, -1.443e-7, 1.743e-3
0.641, -1.468e-7, 1.743e-3
0.642, -1.480e-7, 1.743e-3
0.643, -1.486e-7, 1.743e-3
0.644, -1.496e-7, 1.743e-3
0.645, -1.527e-7, 1.743e-3
0.646, -1.544e-7, 1.743e-3
0.647, -1.552e-7, 1.743e-3
0.648, -1.569e-7, 1.743e-3
0.649, -1.607e-7, 1.743e-3
0.650, -1.622e-7, 1.743e-3
0.651, -1.629e-7, 1.743e-3
0.652, -1.649e-7, 1.743e-3
0.653, -1.676e-7, 1.743e-3
0.654, -1.685e-7, 1.743e-3
0.655, -1.689e-7, 1.743e-3
0.656, -1.697e-7, 1.743e-3
0.657, -1.712e-7, 1.743e-3
0.658, -1.718e-7, 1.743e-3
0.659, -1.720e-7, 1.743e-3
0.660, -1.726e-7, 1.743e-3
0.661, -1.744e-7, 1.743e-3
0.662, -1.753e-7, 1.743e-3
0.663, -1.756e-7, 1.743e-3
0.664, -1.767e-7, 1.742e-3
0.665, -1.800e-7, 1.742e-3
0.666, -1.819e-7, 1.742e-3
0.667, -1.822e-7, 1.742e-3
0.668, -1.838e-7, 1.742e-3
0.669, -1.873e-7, 1.742e-3
0.670, -1.883e-7, 1.742e-3
0.671, -1.885e-7, 1.742e-3
0.672, -1.901e-7, 1.742e-3
0.673, -1.929e-7, 1.742e-3
0.674, -1.934e-7, 1.742e-3
0.675, -1.936e-7, 1.742e-3
0.676, -1.946e-7, 1.742e-3
0.677, -1.966e-7, 1.742e-3
0.678, -1.970e-7, 1.742e-3
0.679, -1.972e-7, 1.742e-3
0.680, -1.982e-7, 1.742e-3
0.681, -2.006e-7, 1.742e-3
0.682, -2.012e-7, 1.742e-3
0.683, -2.012e-7, 1.742e-3
0.684, -2.028e-7, 1.742e-3
0.685, -2.061e-7, 1.742e-3
0.686, -2.065e-7, 1.742e-3
0.687, -2.070e-7, 1.742e-3
0.688, -2.089e-7, 1.742e-3
0.689, -2.121e-7, 1.742e-3
0.690, -2.127e-7, 1.742e-3
0.691, -2.127e-7, 1.742e-3
0.692, -2.145e-7, 1.742e-3
0.693, -2.168e-7, 1.742e-3
0.694, -2.168e-7, 1.742e-3
0.695, -2.169e-7, 1.742e-3
0.696, -2.183e-7, 1.742e-3
0.697, -2.197e-7, 1.742e-3
0.698, -2.198e-7, 1.742e-3
0.699, -2.200e-7, 1.742e-3
0.700, -2.208e-7, 1.742e-3
0.701, -2.222e-7, 1.742e-3
0.702, -2.223e-7, 1.742e-3
0.703, -2.223e-7, 1.742e-3
0.704, -2.235e-7, 1.742e-3
0.705, -2.254e-7, 1.742e-3
0.706, -2.260e-7, 1.742e-3
0.707, -2.260e-7, 1.742e-3
0.708, -2.277e-7, 1.742e-3
0.709, -2.308e-7, 1.742e-3
0.710, -2.309e-7, 1.742e-3
0.711, -2.312e-7, 1.742e-3
0.712, -2.334e-7, 1.741e-3
0.713, -2.363e-7, 1.741e-3
0.714, -2.358e-7, 1.741e-3
0.715, -2.361e-7, 1.741e-3
0.716, -2.380e-7, 1.741e-3
0.717, -2.411e-7, 1.741e-3
0.718, -2.403e-7, 1.741e-3
0.719, -2.407e-7, 1.741e-3
0.720, -2.422e-7, 1.741e-3
0.721, -2.439e-7, 1.741e-3
0.722, -2.438e-7, 1.741e-3
0.723, -2.439e-7, 1.741e-3
0.724, -2.450e-7, 1.741e-3
0.725, -2.465e-7, 1.741e-3
0.726, -2.463e-7, 1.741e-3
0.727, -2.466e-7, 1.741e-3
0.728, -2.481e-7, 1.741e-3
0.729, -2.499e-7, 1.741e-3
0.730, -2.499e-7, 1.741e-3
0.731, -2.500e-7, 1.741e-3
0.732, -2.521e-7, 1.741e-3
0.733, -2.545e-7, 1.741e-3
0.734, -2.545e-7, 1.741e-3
0.735, -2.548e-7, 1.741e-3
0.736, -2.570e-7, 1.741e-3
0.737, -2.596e-7, 1.741e-3
0.738, -2.591e-7, 1.741e-3
0.739, -2.594e-7, 1.741e-3
0.740, -2.619e-7, 1.741e-3
0.741, -2.640e-7, 1.741e-3
0.742, -2.635e-7, 1.741e-3
0.743, -2.639e-7, 1.741e-3
0.744, -2.657e-7, 1.741e-3
0.745, -2.672e-7, 1.741e-3
0.746, -2.667e-7, 1.741e-3
0.747, -2.671e-7, 1.741e-3
0.748, -2.680e-7, 1.741e-3
0.749, -2.689e-7, 1.741e-3
0.750, -2.688e-7, 1.741e-3
0.751, -2.691e-7, 1.741e-3
0.752, -2.700e-7, 1.740e-3
0.753, -2.710e-7, 1.740e-3
0.754, -2.709e-7, 1.740e-3
0.755, -2.712e-7, 1.740e-3
0.756, -2.726e-7, 1.740e-3
0.757, -2.741e-7, 1.740e-3
0.758, -2.740e-7, 1.740e-3
0.759, -2.742e-7, 1.740e-3
0.760, -2.761e-7, 1.740e-3
0.761, -2.785e-7, 1.740e-3
0.762, -2.781e-7, 1.740e-3
0.763, -2.785e-7, 1.740e-3
0.764, -2.809e-7, 1.740e-3
0.765, -2.835e-7, 1.740e-3
0.766, -2.828e-7, 1.740e-3
0.767, -2.837e-7, 1.740e-3
0.768, -2.860e-7, 1.740e-3
0.769, -2.882e-7, 1.740e-3
0.770, -2.878e-7, 1.740e-3
0.771, -2.881e-7, 1.740e-3
0.772, -2.899e-7, 1.740e-3
0.773, -2.917e-7, 1.740e-3
0.774, -2.911e-7, 1.740e-3
0.775, -2.915e-7, 1.740e-3
0.776, -2.930e-7, 1.740e-3
0.777, -2.942e-7, 1.740e-3
0.778, -2.937e-7, 1.740e-3
0.779, -2.941e-7, 1.740e-3
0.780, -2.954e-7, 1.740e-3
0.781, -2.969e-7, 1.740e-3
0.782, -2.966e-7, 1.740e-3
0.783, -2.970e-7, 1.740e-3
0.784, -2.987e-7, 1.740e-3
0.785, -3.005e-7, 1.740e-3
0.786, -3.004e-7, 1.740e-3
0.787, -3.009e-7, 1.739e-3
0.788, -3.032e-7, 1.739e-3
0.789, -3.058e-7, 1.739e-3
0.790, -3.049e-7, 1.739e-3
0.791, -3.056e-7, 1.739e-3
0.792, -3.079e-7, 1.739e-3
0.793, -3.103e-7, 1.739e-3
0.794, -3.094e-7, 1.739e-3
0.795, -3.101e-7, 1.739e-3
0.796, -3.123e-7, 1.739e-3
0.797, -3.143e-7, 1.739e-3
0.798, -3.137e-7, 1.739e-3
0.799, -3.143e-7, 1.739e-3
0.800, -3.154e-7, 1.739e-3
0.801, -3.167e-7, 1.739e-3
0.802, -3.164e-7, 1.739e-3
0.803, -3.168e-7, 1.739e-3
0.804, -3.177e-7, 1.739e-3
0.805, -3.189e-7, 1.739e-3
0.806, -3.187e-7, 1.739e-3
0.807, -3.189e-7, 1.739e-3
0.808, -3.200e-7, 1.739e-3
0.809, -3.214e-7, 1.739e-3
0.810, -3.213e-7, 1.739e-3
0.811, -3.213e-7, 1.739e-3
0.812, -3.226e-7, 1.739e-3
0.813, -3.246e-7, 1.739e-3
0.814, -3.247e-7, 1.739e-3
0.815, -3.254e-7, 1.739e-3
0.816, -3.269e-7, 1.739e-3
0.817, -3.297e-7, 1.739e-3
0.818, -3.297e-7, 1.738e-3
0.819, -3.300e-7, 1.738e-3
0.820, -3.314e-7, 1.738e-3
0.821, -3.341e-7, 1.738e-3
0.822, -3.337e-7, 1.738e-3
0.823, -3.343e-7, 1.738e-3
0.824, -3.360e-7, 1.738e-3
0.825, -3.382e-7, 1.738e-3
0.826, -3.380e-7, 1.738e-3
0.827, -3.384e-7, 1.738e-3
0.828, -3.396e-7, 1.738e-3
0.829, -3.414e-7, 1.738e-3
0.830, -3.411e-7, 1.738e-3
0.831, -3.414e-7, 1.738e-3
0.832, -3.421e-7, 1.738e-3
0.833, -3.436e-7, 1.738e-3
0.834, -3.435e-7, 1.738e-3
0.835, -3.439e-7, 1.738e-3
0.836, -3.449e-7, 1.738e-3
0.837, -3.468e-7, 1.738e-3
0.838, -3.465e-7, 1.738e-3
0.839, -3.472e-7, 1.738e-3
0.840, -3.483e-7, 1.738e-3
0.841, -3.507e-7, 1.738e-3
0.842, -3.507e-7, 1.738e-3
0.843, -3.509e-7, 1.738e-3
0.844, -3.522e-7, 1.738e-3
0.845, -3.548e-7, 1.738e-3
0.846, -3.547e-7, 1.738e-3
0.847, -3.547e-7, 1.737e-3
0.848, -3.559e-7, 1.737e-3
0.849, -3.584e-7, 1.737e-3
0.850, -3.587e-7, 1.737e-3
0.851, -3.587e-7, 1.737e-3
0.852, -3.600e-7, 1.737e-3
0.853, -3.621e-7, 1.737e-3
0.854, -3.621e-7, 1.737e-3
0.855, -3.623e-7, 1.737e-3
0.856, -3.631e-7, 1.737e-3
0.857, -3.647e-7, 1.737e-3
0.858, -3.647e-7, 1.737e-3
0.859, -3.647e-7, 1.737e-3
0.860, -3.653e-7, 1.737e-3
0.861, -3.664e-7, 1.737e-3
0.862, -3.665e-7, 1.737e-3
0.863, -3.666e-7, 1.737e-3
0.864, -3.669e-7, 1.737e-3
0.865, -3.680e-7, 1.737e-3
0.866, -3.682e-7, 1.737e-3
0.867, -3.680e-7, 1.737e-3
0.868, -3.683e-7, 1.737e-3
0.869, -3.699e-7, 1.737e-3
0.870, -3.704e-7, 1.737e-3
0.871, -3.706e-7, 1.737e-3
0.872, -3.713e-7, 1.737e-3
0.873, -3.732e-7, 1.737e-3
0.874, -3.739e-7, 1.737e-3
0.875, -3.738e-7, 1.736e-3
0.876, -3.743e-7, 1.736e-3
0.877, -3.766e-7, 1.736e-3
0.878, -3.774e-7, 1.736e-3
0.879, -3.773e-7, 1.736e-3
0.880, -3.781e-7, 1.736e-3
0.881, -3.810e-7, 1.736e-3
0.882, -3.816e-7, 1.736e-3
0.883, -3.814e-7, 1.736e-3
0.884, -3.814e-7, 1.736e-3
0.885, -3.842e-7, 1.736e-3
0.886, -3.850e-7, 1.736e-3
0.887, -3.848e-7, 1.736e-3
0.888, -3.849e-7, 1.736e-3
0.889, -3.867e-7, 1.736e-3
0.890, -3.872e-7, 1.736e-3
0.891, -3.871e-7, 1.736e-3
0.892, -3.876e-7, 1.736e-3
0.893, -3.892e-7, 1.736e-3
0.894, -3.896e-7, 1.736e-3
0.895, -3.896e-7, 1.736e-3
0.896, -3.895e-7, 1.736e-3
0.897, -3.909e-7, 1.736e-3
0.898, -3.913e-7, 1.736e-3
0.899, -3.910e-7, 1.736e-3
0.900, -3.911e-7, 1.736e-3
0.901, -3.927e-7, 1.735e-3
0.902, -3.932e-7, 1.735e-3
0.903, -3.932e-7, 1.735e-3
0.904, -3.932e-7, 1.735e-3
0.905, -3.948e-7, 1.735e-3
0.906, -3.957e-7, 1.735e-3
0.907, -3.957e-7, 1.735e-3
0.908, -3.955e-7, 1.735e-3
0.909, -3.972e-7, 1.735e-3
0.910, -3.981e-7, 1.735e-3
0.911, -3.985e-7, 1.735e-3
0.912, -3.982e-7, 1.735e-3
0.913, -4.002e-7, 1.735e-3
0.914, -4.012e-7, 1.735e-3
0.915, -4.010e-7, 1.735e-3
0.916, -4.005e-7, 1.735e-3
0.917, -4.032e-7, 1.735e-3
0.918, -4.043e-7, 1.735e-3
0.919, -4.049e-7, 1.735e-3
0.920, -4.047e-7, 1.735e-3
0.921, -4.063e-7, 1.735e-3
0.922, -4.078e-7, 1.735e-3
0.923, -4.074e-7, 1.735e-3
0.924, -4.070e-7, 1.735e-3
0.925, -4.089e-7, 1.735e-3
0.926, -4.099e-7, 1.734e-3
0.927, -4.100e-7, 1.734e-3
0.928, -4.097e-7, 1.734e-3
0.929, -4.111e-7, 1.734e-3
0.930, -4.119e-7, 1.734e-3
0.931, -4.118e-7, 1.734e-3
0.932, -4.118e-7, 1.734e-3
0.933, -4.130e-7, 1.734e-3
0.934, -4.134e-7, 1.734e-3
0.935, -4.134e-7, 1.734e-3
0.936, -4.131e-7, 1.734e-3
0.937, -4.139e-7, 1.734e-3
0.938, -4.147e-7, 1.734e-3
0.939, -4.147e-7, 1.734e-3
0.940, -4.144e-7, 1.734e-3
0.941, -4.152e-7, 1.734e-3
0.942, -4.157e-7, 1.734e-3
0.943, -4.159e-7, 1.734e-3
0.944, -4.157e-7, 1.734e-3
0.945, -4.163e-7, 1.734e-3
0.946, -4.173e-7, 1.734e-3
0.947, -4.171e-7, 1.734e-3
0.948, -4.165e-7, 1.734e-3
0.949, -4.174e-7, 1.734e-3
0.950, -4.179e-7, 1.733e-3
0.951, -4.182e-7, 1.733e-3
0.952, -4.176e-7, 1.733e-3
0.953, -4.184e-7, 1.733e-3
0.954, -4.192e-7, 1.733e-3
0.955, -4.198e-7, 1.733e-3
0.956, -4.190e-7, 1.733e-3
0.957, -4.199e-7, 1.733e-3
0.958, -4.208e-7, 1.733e-3
0.959, -4.219e-7, 1.733e-3
0.960, -4.206e-7, 1.733e-3
0.961, -4.213e-7, 1.733e-3
0.962, -4.226e-7, 1.733e-3
0.963, -4.235e-7, 1.733e-3
0.964, -4.223e-7, 1.733e-3
0.965, -4.234e-7, 1.733e-3
0.966, -4.247e-7, 1.733e-3
0.967, -4.255e-7, 1.733e-3
0.968, -4.243e-7, 1.733e-3
0.969, -4.249e-7, 1.733e-3
0.970, -4.265e-7, 1.733e-3
0.971, -4.273e-7, 1.733e-3
0.972, -4.267e-7, 1.733e-3
0.973, -4.283e-7, 1.733e-3
0.974, -4.291e-7, 1.732e-3
0.975, -4.299e-7, 1.732e-3
0.976, -4.285e-7, 1.732e-3
0.977, -4.291e-7, 1.732e-3
0.978, -4.306e-7, 1.732e-3
0.979, -4.318e-7, 1.732e-3
0.980, -4.304e-7, 1.732e-3
0.981, -4.306e-7, 1.732e-3
0.982, -4.315e-7, 1.732e-3
0.983, -4.330e-7, 1.732e-3
0.984, -4.318e-7, 1.732e-3
0.985, -4.319e-7, 1.732e-3
0.986, -4.329e-7, 1.732e-3
0.987, -4.347e-7, 1.732e-3
0.988, -4.336e-7, 1.732e-3
0.989, -4.340e-7, 1.732e-3
0.990, -4.351e-7, 1.732e-3
0.991, -4.362e-7, 1.732e-3
0.992, -4.352e-7, 1.732e-3
0.993, -4.352e-7, 1.732e-3
0.994, -4.365e-7, 1.732e-3
0.995, -4.377e-7, 1.732e-3
0.996, -4.370e-7, 1.732e-3
0.997, -4.372e-7, 1.731e-3
0.998, -4.372e-7, 1.731e-3
0.999, -4.382e-7, 1.731e-3
1.000, -4.376e-7, 1.731e-3
1.001, -4.374e-7, 1.731e-3
1.002, -4.380e-7, 1.731e-3
1.003, -4.392e-7, 1.731e-3
1.004, -4.385e-7, 1.731e-3
1.005, -4.382e-7, 1.731e-3
1.006, -4.386e-7, 1.731e-3
1.007, -4.399e-7, 1.731e-3
1.008, -4.394e-7, 1.731e-3
1.009, -4.391e-7, 1.731e-3
1.010, -4.396e-7, 1.731e-3
1.011, -4.405e-7, 1.731e-3
1.012, -4.400e-7, 1.731e-3
1.013, -4.399e-7, 1.731e-3
1.014, -4.401e-7, 1.731e-3
1.015, -4.412e-7, 1.731e-3
1.016, -4.408e-7, 1.731e-3
1.017, -4.405e-7, 1.731e-3
1.018, -4.409e-7, 1.731e-3
1.019, -4.423e-7, 1.730e-3
1.020, -4.420e-7, 1.730e-3
1.021, -4.417e-7, 1.730e-3
1.022, -4.420e-7, 1.730e-3
1.023, -4.426e-7, 1.730e-3
1.024, -4.419e-7, 1.730e-3
1.025, -4.416e-7, 1.730e-3
1.026, -4.421e-7, 1.730e-3
1.027, -4.435e-7, 1.730e-3
1.028, -4.429e-7, 1.730e-3
1.029, -4.426e-7, 1.730e-3
1.030, -4.425e-7, 1.730e-3
1.031, -4.439e-7, 1.730e-3
1.032, -4.438e-7, 1.730e-3
1.033, -4.434e-7, 1.730e-3
1.034, -4.438e-7, 1.730e-3
1.035, -4.451e-7, 1.730e-3
1.036, -4.448e-7, 1.730e-3
1.037, -4.441e-7, 1.730e-3
1.038, -4.440e-7, 1.730e-3
1.039, -4.454e-7, 1.730e-3
1.040, -4.456e-7, 1.730e-3
1.041, -4.451e-7, 1.730e-3
1.042, -4.446e-7, 1.729e-3
1.043, -4.462e-7, 1.729e-3
1.044, -4.465e-7, 1.729e-3
1.045, -4.465e-7, 1.729e-3
1.046, -4.463e-7, 1.729e-3
1.047, -4.481e-7, 1.729e-3
1.048, -4.484e-7, 1.729e-3
1.049, -4.476e-7, 1.729e-3
1.050, -4.470e-7, 1.729e-3
1.051, -4.487e-7, 1.729e-3
1.052, -4.488e-7, 1.729e-3
1.053, -4.484e-7, 1.729e-3
1.054, -4.479e-7, 1.729e-3
1.055, -4.500e-7, 1.729e-3
1.056, -4.506e-7, 1.729e-3
1.057, -4.498e-7, 1.729e-3
1.058, -4.489e-7, 1.729e-3
1.059, -4.505e-7, 1.729e-3
1.060, -4.517e-7, 1.729e-3
1.061, -4.518e-7, 1.729e-3
1.062, -4.505e-7, 1.729e-3
1.063, -4.519e-7, 1.729e-3
1.064, -4.527e-7, 1.728e-3
1.065, -4.525e-7, 1.728e-3
1.066, -4.513e-7, 1.728e-3
1.067, -4.529e-7, 1.728e-3
1.068, -4.540e-7, 1.728e-3
1.069, -4.541e-7, 1.728e-3
1.070, -4.531e-7, 1.728e-3
1.071, -4.540e-7, 1.728e-3
1.072, -4.547e-7, 1.728e-3
1.073, -4.549e-7, 1.728e-3
1.074, -4.545e-7, 1.728e-3
1.075, -4.562e-7, 1.728e-3
1.076, -4.577e-7, 1.728e-3
1.077, -4.574e-7, 1.728e-3
1.078, -4.566e-7, 1.728e-3
1.079, -4.578e-7, 1.728e-3
1.080, -4.588e-7, 1.728e-3
1.081, -4.588e-7, 1.728e-3
1.082, -4.576e-7, 1.728e-3
1.083, -4.586e-7, 1.728e-3
1.084, -4.598e-7, 1.728e-3
1.085, -4.600e-7, 1.728e-3
1.086, -4.591e-7, 1.727e-3
1.087, -4.600e-7, 1.727e-3
1.088, -4.607e-7, 1.727e-3
1.089, -4.606e-7, 1.727e-3
1.090, -4.603e-7, 1.727e-3
1.091, -4.608e-7, 1.727e-3
1.092, -4.614e-7, 1.727e-3
1.093, -4.621e-7, 1.727e-3
1.094, -4.618e-7, 1.727e-3
1.095, -4.623e-7, 1.727e-3
1.096, -4.630e-7, 1.727e-3
1.097, -4.630e-7, 1.727e-3
1.098, -4.625e-7, 1.727e-3
1.099, -4.627e-7, 1.727e-3
1.100, -4.573e-7, 1.727e-3
