Oct. 19, 2023   13:29:53
Cyclic Voltammetry
File: c:\users\pku\desktop\zzxµç»¯Ñ§\0_5.txt
Data Source:  Experiment
Instrument Model:  CHI600B
Header: 
Note: 

Init E (V) = 0
High E (V) = 1.1
Low E (V) = -0.3
Init P/N = P
Scan Rate (V/s) = 0.5
Segment = 6
Sample Interval (V) = 0.003
Quiet Time (sec) = 2
Sensitivity (A/V) = 5e-5

Segment 1:

Segment 2:
Ep = 0.391V
ip = 6.792e-5A
Ah = 1.581e-5C

Segment 3:

Segment 4:
Ep = 0.395V
ip = 7.566e-5A
Ah = 1.663e-5C

Ep = -0.193V
ip = 1.149e-4A
Ah = 2.843e-5C

Segment 5:

Segment 6:
Ep = 0.402V
ip = 8.402e-5A
Ah = 1.710e-5C

Ep = -0.192V
ip = 1.127e-4A
Ah = 2.874e-5C

Potential/V, Current/A, Charge/C

Segment 1:
0.003, -1.678e-5, -1.007e-7
0.006, -2.036e-5, -2.229e-7
0.009, -2.048e-5, -3.457e-7
0.012, -2.076e-5, -4.703e-7
0.015, -2.096e-5, -5.961e-7
0.018, -1.973e-5, -7.145e-7
0.021, -1.942e-5, -8.310e-7
0.024, -1.910e-5, -9.456e-7
0.027, -1.831e-5, -1.056e-6
0.030, -1.779e-5, -1.162e-6
0.033, -1.730e-5, -1.266e-6
0.036, -1.720e-5, -1.369e-6
0.039, -1.619e-5, -1.466e-6
0.042, -1.589e-5, -1.562e-6
0.045, -1.592e-5, -1.657e-6
0.048, -1.493e-5, -1.747e-6
0.051, -1.481e-5, -1.836e-6
0.054, -1.464e-5, -1.923e-6
0.057, -1.411e-5, -2.008e-6
0.060, -1.381e-5, -2.091e-6
0.063, -1.354e-5, -2.172e-6
0.066, -1.361e-5, -2.254e-6
0.069, -1.297e-5, -2.332e-6
0.072, -1.282e-5, -2.409e-6
0.075, -1.296e-5, -2.486e-6
0.078, -1.229e-5, -2.560e-6
0.081, -1.230e-5, -2.634e-6
0.084, -1.232e-5, -2.708e-6
0.087, -1.189e-5, -2.779e-6
0.090, -1.174e-5, -2.850e-6
0.093, -1.173e-5, -2.920e-6
0.096, -1.182e-5, -2.991e-6
0.099, -1.142e-5, -3.059e-6
0.102, -1.143e-5, -3.128e-6
0.105, -1.165e-5, -3.198e-6
0.108, -1.117e-5, -3.265e-6
0.111, -1.131e-5, -3.333e-6
0.114, -1.142e-5, -3.401e-6
0.117, -1.120e-5, -3.468e-6
0.120, -1.121e-5, -3.536e-6
0.123, -1.124e-5, -3.603e-6
0.126, -1.142e-5, -3.672e-6
0.129, -1.112e-5, -3.738e-6
0.132, -1.126e-5, -3.806e-6
0.135, -1.149e-5, -3.875e-6
0.138, -1.116e-5, -3.942e-6
0.141, -1.138e-5, -4.010e-6
0.144, -1.155e-5, -4.080e-6
0.147, -1.132e-5, -4.147e-6
0.150, -1.143e-5, -4.216e-6
0.153, -1.146e-5, -4.285e-6
0.156, -1.166e-5, -4.355e-6
0.159, -1.140e-5, -4.423e-6
0.162, -1.149e-5, -4.492e-6
0.165, -1.177e-5, -4.563e-6
0.168, -1.135e-5, -4.631e-6
0.171, -1.152e-5, -4.700e-6
0.174, -1.170e-5, -4.770e-6
0.177, -1.152e-5, -4.839e-6
0.180, -1.150e-5, -4.908e-6
0.183, -1.153e-5, -4.977e-6
0.186, -1.166e-5, -5.047e-6
0.189, -1.144e-5, -5.116e-6
0.192, -1.150e-5, -5.185e-6
0.195, -1.180e-5, -5.256e-6
0.198, -1.144e-5, -5.325e-6
0.201, -1.165e-5, -5.394e-6
0.204, -1.171e-5, -5.465e-6
0.207, -1.162e-5, -5.534e-6
0.210, -1.167e-5, -5.604e-6
0.213, -1.174e-5, -5.675e-6
0.216, -1.197e-5, -5.747e-6
0.219, -1.172e-5, -5.817e-6
0.222, -1.188e-5, -5.888e-6
0.225, -1.222e-5, -5.962e-6
0.228, -1.185e-5, -6.033e-6
0.231, -1.206e-5, -6.105e-6
0.234, -1.226e-5, -6.179e-6
0.237, -1.212e-5, -6.251e-6
0.240, -1.216e-5, -6.324e-6
0.243, -1.226e-5, -6.398e-6
0.246, -1.243e-5, -6.473e-6
0.249, -1.216e-5, -6.545e-6
0.252, -1.232e-5, -6.619e-6
0.255, -1.261e-5, -6.695e-6
0.258, -1.219e-5, -6.768e-6
0.261, -1.240e-5, -6.843e-6
0.264, -1.254e-5, -6.918e-6
0.267, -1.237e-5, -6.992e-6
0.270, -1.238e-5, -7.066e-6
0.273, -1.240e-5, -7.141e-6
0.276, -1.262e-5, -7.217e-6
0.279, -1.237e-5, -7.291e-6
0.282, -1.247e-5, -7.366e-6
0.285, -1.279e-5, -7.442e-6
0.288, -1.244e-5, -7.517e-6
0.291, -1.269e-5, -7.593e-6
0.294, -1.288e-5, -7.670e-6
0.297, -1.274e-5, -7.747e-6
0.300, -1.284e-5, -7.824e-6
0.303, -1.293e-5, -7.901e-6
0.306, -1.331e-5, -7.981e-6
0.309, -1.301e-5, -8.059e-6
0.312, -1.323e-5, -8.139e-6
0.315, -1.358e-5, -8.220e-6
0.318, -1.330e-5, -8.300e-6
0.321, -1.352e-5, -8.381e-6
0.324, -1.371e-5, -8.463e-6
0.327, -1.366e-5, -8.545e-6
0.330, -1.370e-5, -8.628e-6
0.333, -1.377e-5, -8.710e-6
0.336, -1.411e-5, -8.795e-6
0.339, -1.386e-5, -8.878e-6
0.342, -1.404e-5, -8.962e-6
0.345, -1.439e-5, -9.049e-6
0.348, -1.408e-5, -9.133e-6
0.351, -1.435e-5, -9.219e-6
0.354, -1.453e-5, -9.306e-6
0.357, -1.445e-5, -9.393e-6
0.360, -1.453e-5, -9.480e-6
0.363, -1.465e-5, -9.568e-6
0.366, -1.496e-5, -9.658e-6
0.369, -1.478e-5, -9.747e-6
0.372, -1.502e-5, -9.837e-6
0.375, -1.549e-5, -9.930e-6
0.378, -1.517e-5, -1.002e-5
0.381, -1.551e-5, -1.011e-5
0.384, -1.577e-5, -1.021e-5
0.387, -1.588e-5, -1.030e-5
0.390, -1.598e-5, -1.040e-5
0.393, -1.624e-5, -1.050e-5
0.396, -1.677e-5, -1.060e-5
0.399, -1.660e-5, -1.070e-5
0.402, -1.701e-5, -1.080e-5
0.405, -1.747e-5, -1.090e-5
0.408, -1.732e-5, -1.101e-5
0.411, -1.774e-5, -1.111e-5
0.414, -1.812e-5, -1.122e-5
0.417, -1.822e-5, -1.133e-5
0.420, -1.839e-5, -1.144e-5
0.423, -1.868e-5, -1.155e-5
0.426, -1.925e-5, -1.167e-5
0.429, -1.910e-5, -1.179e-5
0.432, -1.948e-5, -1.190e-5
0.435, -2.015e-5, -1.202e-5
0.438, -1.997e-5, -1.214e-5
0.441, -2.039e-5, -1.227e-5
0.444, -2.082e-5, -1.239e-5
0.447, -2.111e-5, -1.252e-5
0.450, -2.131e-5, -1.264e-5
0.453, -2.168e-5, -1.277e-5
0.456, -2.252e-5, -1.291e-5
0.459, -2.244e-5, -1.304e-5
0.462, -2.312e-5, -1.318e-5
0.465, -2.396e-5, -1.333e-5
0.468, -2.387e-5, -1.347e-5
0.471, -2.468e-5, -1.362e-5
0.474, -2.536e-5, -1.377e-5
0.477, -2.589e-5, -1.393e-5
0.480, -2.635e-5, -1.408e-5
0.483, -2.711e-5, -1.425e-5
0.486, -2.830e-5, -1.442e-5
0.489, -2.853e-5, -1.459e-5
0.492, -2.942e-5, -1.476e-5
0.495, -3.076e-5, -1.495e-5
0.498, -3.112e-5, -1.514e-5
0.501, -3.224e-5, -1.533e-5
0.504, -3.333e-5, -1.553e-5
0.507, -3.443e-5, -1.574e-5
0.510, -3.527e-5, -1.595e-5
0.513, -3.655e-5, -1.617e-5
0.516, -3.816e-5, -1.640e-5
0.519, -3.886e-5, -1.663e-5
0.522, -4.042e-5, -1.687e-5
0.525, -4.218e-5, -1.712e-5
0.528, -4.294e-5, -1.738e-5
0.531, -4.450e-5, -1.765e-5
0.534, -4.611e-5, -1.793e-5
0.537, -4.773e-5, -1.821e-5
0.540, -4.900e-5, -1.851e-5
0.543, -5.056e-5, -1.881e-5
0.546, -5.276e-5, -1.913e-5
0.549, -5.359e-5, -1.945e-5
0.552, -5.535e-5, -1.978e-5
0.555, -5.742e-5, -2.012e-5
0.558, -5.843e-5, -2.047e-5
0.561, -6.013e-5, -2.083e-5
0.564, -6.180e-5, -2.121e-5
0.567, -6.353e-5, -2.159e-5
0.570, -6.473e-5, -2.198e-5
0.573, -6.620e-5, -2.237e-5
0.576, -6.842e-5, -2.278e-5
0.579, -6.909e-5, -2.320e-5
0.582, -7.074e-5, -2.362e-5
0.585, -7.254e-5, -2.406e-5
0.588, -7.321e-5, -2.450e-5
0.591, -7.443e-5, -2.494e-5
0.594, -7.574e-5, -2.540e-5
0.597, -7.707e-5, -2.586e-5
0.600, -7.774e-5, -2.633e-5
0.603, -7.879e-5, -2.680e-5
0.606, -8.061e-5, -2.728e-5
0.609, -8.081e-5, -2.777e-5
0.612, -8.182e-5, -2.826e-5
0.615, -8.278e-5, -2.876e-5
0.618, -8.343e-5, -2.926e-5
0.621, -8.445e-5, -2.976e-5
0.624, -8.554e-5, -3.028e-5
0.627, -8.692e-5, -3.080e-5
0.630, -8.743e-5, -3.132e-5
0.633, -8.834e-5, -3.185e-5
0.636, -9.000e-5, -3.239e-5
0.639, -9.003e-5, -3.293e-5
0.642, -9.128e-5, -3.348e-5
0.645, -9.267e-5, -3.404e-5
0.648, -9.304e-5, -3.459e-5
0.651, -9.392e-5, -3.516e-5
0.654, -9.508e-5, -3.573e-5
0.657, -9.644e-5, -3.631e-5
0.660, -9.682e-5, -3.689e-5
0.663, -9.768e-5, -3.747e-5
0.666, -9.957e-5, -3.807e-5
0.669, -9.939e-5, -3.867e-5
0.672, -1.002e-4, -3.927e-5
0.675, -1.013e-4, -3.988e-5
0.678, -1.014e-4, -4.048e-5
0.681, -1.019e-4, -4.110e-5
0.684, -1.025e-4, -4.171e-5
0.687, -1.033e-4, -4.233e-5
0.690, -1.032e-4, -4.295e-5
0.693, -1.035e-4, -4.357e-5
0.696, -1.046e-4, -4.420e-5
0.699, -1.042e-4, -4.482e-5
0.702, -1.046e-4, -4.545e-5
0.705, -1.054e-4, -4.608e-5
0.708, -1.052e-4, -4.672e-5
0.711, -1.056e-4, -4.735e-5
0.714, -1.060e-4, -4.799e-5
0.717, -1.068e-4, -4.863e-5
0.720, -1.067e-4, -4.927e-5
0.723, -1.069e-4, -4.991e-5
0.726, -1.081e-4, -5.056e-5
0.729, -1.076e-4, -5.120e-5
0.732, -1.082e-4, -5.185e-5
0.735, -1.090e-4, -5.250e-5
0.738, -1.090e-4, -5.316e-5
0.741, -1.094e-4, -5.381e-5
0.744, -1.099e-4, -5.447e-5
0.747, -1.108e-4, -5.514e-5
0.750, -1.107e-4, -5.580e-5
0.753, -1.112e-4, -5.647e-5
0.756, -1.122e-4, -5.714e-5
0.759, -1.117e-4, -5.781e-5
0.762, -1.121e-4, -5.849e-5
0.765, -1.127e-4, -5.916e-5
0.768, -1.126e-4, -5.984e-5
0.771, -1.128e-4, -6.051e-5
0.774, -1.129e-4, -6.119e-5
0.777, -1.135e-4, -6.187e-5
0.780, -1.131e-4, -6.255e-5
0.783, -1.133e-4, -6.323e-5
0.786, -1.141e-4, -6.392e-5
0.789, -1.135e-4, -6.460e-5
0.792, -1.140e-4, -6.528e-5
0.795, -1.146e-4, -6.597e-5
0.798, -1.144e-4, -6.666e-5
0.801, -1.147e-4, -6.734e-5
0.804, -1.150e-4, -6.803e-5
0.807, -1.155e-4, -6.873e-5
0.810, -1.154e-4, -6.942e-5
0.813, -1.158e-4, -7.011e-5
0.816, -1.167e-4, -7.081e-5
0.819, -1.163e-4, -7.151e-5
0.822, -1.169e-4, -7.221e-5
0.825, -1.179e-4, -7.292e-5
0.828, -1.182e-4, -7.363e-5
0.831, -1.187e-4, -7.434e-5
0.834, -1.193e-4, -7.506e-5
0.837, -1.201e-4, -7.578e-5
0.840, -1.203e-4, -7.650e-5
0.843, -1.208e-4, -7.722e-5
0.846, -1.217e-4, -7.796e-5
0.849, -1.216e-4, -7.868e-5
0.852, -1.221e-4, -7.942e-5
0.855, -1.229e-4, -8.015e-5
0.858, -1.228e-4, -8.089e-5
0.861, -1.233e-4, -8.163e-5
0.864, -1.237e-4, -8.237e-5
0.867, -1.244e-4, -8.312e-5
0.870, -1.245e-4, -8.387e-5
0.873, -1.249e-4, -8.462e-5
0.876, -1.261e-4, -8.537e-5
0.879, -1.259e-4, -8.613e-5
0.882, -1.266e-4, -8.689e-5
0.885, -1.274e-4, -8.765e-5
0.888, -1.276e-4, -8.842e-5
0.891, -1.280e-4, -8.919e-5
0.894, -1.287e-4, -8.996e-5
0.897, -1.296e-4, -9.074e-5
0.900, -1.298e-4, -9.151e-5
0.903, -1.304e-4, -9.230e-5
0.906, -1.317e-4, -9.309e-5
0.909, -1.318e-4, -9.388e-5
0.912, -1.327e-4, -9.467e-5
0.915, -1.339e-4, -9.548e-5
0.918, -1.345e-4, -9.628e-5
0.921, -1.354e-4, -9.710e-5
0.924, -1.362e-4, -9.791e-5
0.927, -1.372e-4, -9.874e-5
0.930, -1.375e-4, -9.956e-5
0.933, -1.381e-4, -1.004e-4
0.936, -1.392e-4, -1.012e-4
0.939, -1.393e-4, -1.021e-4
0.942, -1.399e-4, -1.029e-4
0.945, -1.408e-4, -1.037e-4
0.948, -1.410e-4, -1.046e-4
0.951, -1.415e-4, -1.054e-4
0.954, -1.420e-4, -1.063e-4
0.957, -1.428e-4, -1.072e-4
0.960, -1.430e-4, -1.080e-4
0.963, -1.436e-4, -1.089e-4
0.966, -1.446e-4, -1.097e-4
0.969, -1.447e-4, -1.106e-4
0.972, -1.454e-4, -1.115e-4
0.975, -1.463e-4, -1.124e-4
0.978, -1.465e-4, -1.132e-4
0.981, -1.471e-4, -1.141e-4
0.984, -1.478e-4, -1.150e-4
0.987, -1.488e-4, -1.159e-4
0.990, -1.491e-4, -1.168e-4
0.993, -1.498e-4, -1.177e-4
0.996, -1.511e-4, -1.186e-4
0.999, -1.512e-4, -1.195e-4
1.002, -1.522e-4, -1.204e-4
1.005, -1.532e-4, -1.213e-4
1.008, -1.537e-4, -1.223e-4
1.011, -1.543e-4, -1.232e-4
1.014, -1.549e-4, -1.241e-4
1.017, -1.559e-4, -1.250e-4
1.020, -1.560e-4, -1.260e-4
1.023, -1.563e-4, -1.269e-4
1.026, -1.573e-4, -1.279e-4
1.029, -1.573e-4, -1.288e-4
1.032, -1.579e-4, -1.298e-4
1.035, -1.586e-4, -1.307e-4
1.038, -1.587e-4, -1.317e-4
1.041, -1.591e-4, -1.326e-4
1.044, -1.596e-4, -1.336e-4
1.047, -1.604e-4, -1.345e-4
1.050, -1.605e-4, -1.355e-4
1.053, -1.609e-4, -1.365e-4
1.056, -1.619e-4, -1.374e-4
1.059, -1.618e-4, -1.384e-4
1.062, -1.624e-4, -1.394e-4
1.065, -1.632e-4, -1.404e-4
1.068, -1.635e-4, -1.413e-4
1.071, -1.640e-4, -1.423e-4
1.074, -1.646e-4, -1.433e-4
1.077, -1.657e-4, -1.443e-4
1.080, -1.660e-4, -1.453e-4
1.083, -1.666e-4, -1.463e-4
1.086, -1.679e-4, -1.473e-4
1.089, -1.681e-4, -1.483e-4
1.092, -1.689e-4, -1.493e-4
1.095, -1.698e-4, -1.504e-4
1.098, -1.701e-4, -1.514e-4

Segment 2:
1.099, -1.543e-4, -1.523e-4
1.096, -1.360e-4, -1.531e-4
1.093, -1.222e-4, -1.538e-4
1.090, -1.099e-4, -1.545e-4
1.087, -9.960e-5, -1.551e-4
1.084, -9.089e-5, -1.557e-4
1.081, -8.222e-5, -1.561e-4
1.078, -7.511e-5, -1.566e-4
1.075, -6.882e-5, -1.570e-4
1.072, -6.269e-5, -1.574e-4
1.069, -5.751e-5, -1.577e-4
1.066, -5.272e-5, -1.580e-4
1.063, -4.866e-5, -1.583e-4
1.060, -4.449e-5, -1.586e-4
1.057, -4.097e-5, -1.588e-4
1.054, -3.812e-5, -1.591e-4
1.051, -3.455e-5, -1.593e-4
1.048, -3.208e-5, -1.595e-4
1.045, -2.983e-5, -1.597e-4
1.042, -2.711e-5, -1.598e-4
1.039, -2.508e-5, -1.600e-4
1.036, -2.316e-5, -1.601e-4
1.033, -2.151e-5, -1.602e-4
1.030, -1.957e-5, -1.604e-4
1.027, -1.801e-5, -1.605e-4
1.024, -1.726e-5, -1.606e-4
1.021, -1.511e-5, -1.607e-4
1.018, -1.396e-5, -1.607e-4
1.015, -1.303e-5, -1.608e-4
1.012, -1.141e-5, -1.609e-4
1.009, -1.042e-5, -1.610e-4
1.006, -9.420e-6, -1.610e-4
1.003, -8.546e-6, -1.611e-4
1.000, -7.338e-6, -1.611e-4
0.997, -6.494e-6, -1.611e-4
0.994, -6.054e-6, -1.612e-4
0.991, -4.644e-6, -1.612e-4
0.988, -4.103e-6, -1.612e-4
0.985, -3.716e-6, -1.613e-4
0.982, -2.586e-6, -1.613e-4
0.979, -2.074e-6, -1.613e-4
0.976, -1.517e-6, -1.613e-4
0.973, -1.046e-6, -1.613e-4
0.970, -2.718e-7, -1.613e-4
0.967, 1.445e-7, -1.613e-4
0.964, 1.622e-7, -1.613e-4
0.961, 1.286e-6, -1.613e-4
0.958, 1.494e-6, -1.613e-4
0.955, 1.612e-6, -1.613e-4
0.952, 2.351e-6, -1.613e-4
0.949, 2.684e-6, -1.612e-4
0.946, 3.015e-6, -1.612e-4
0.943, 3.238e-6, -1.612e-4
0.940, 3.877e-6, -1.612e-4
0.937, 4.191e-6, -1.612e-4
0.934, 4.126e-6, -1.611e-4
0.931, 5.120e-6, -1.611e-4
0.928, 5.162e-6, -1.611e-4
0.925, 5.267e-6, -1.610e-4
0.922, 6.136e-6, -1.610e-4
0.919, 6.345e-6, -1.610e-4
0.916, 6.603e-6, -1.609e-4
0.913, 6.737e-6, -1.609e-4
0.910, 7.512e-6, -1.608e-4
0.907, 7.809e-6, -1.608e-4
0.904, 7.622e-6, -1.607e-4
0.901, 8.556e-6, -1.607e-4
0.898, 8.639e-6, -1.606e-4
0.895, 8.614e-6, -1.606e-4
0.892, 9.294e-6, -1.605e-4
0.889, 9.483e-6, -1.605e-4
0.886, 9.714e-6, -1.604e-4
0.883, 9.745e-6, -1.604e-4
0.880, 1.030e-5, -1.603e-4
0.877, 1.045e-5, -1.602e-4
0.874, 1.028e-5, -1.602e-4
0.871, 1.119e-5, -1.601e-4
0.868, 1.112e-5, -1.600e-4
0.865, 1.103e-5, -1.600e-4
0.862, 1.165e-5, -1.599e-4
0.859, 1.184e-5, -1.598e-4
0.856, 1.208e-5, -1.598e-4
0.853, 1.205e-5, -1.597e-4
0.850, 1.265e-5, -1.596e-4
0.847, 1.291e-5, -1.595e-4
0.844, 1.268e-5, -1.595e-4
0.841, 1.362e-5, -1.594e-4
0.838, 1.359e-5, -1.593e-4
0.835, 1.364e-5, -1.592e-4
0.832, 1.432e-5, -1.591e-4
0.829, 1.456e-5, -1.590e-4
0.826, 1.486e-5, -1.589e-4
0.823, 1.493e-5, -1.589e-4
0.820, 1.564e-5, -1.588e-4
0.817, 1.592e-5, -1.587e-4
0.814, 1.572e-5, -1.586e-4
0.811, 1.668e-5, -1.585e-4
0.808, 1.670e-5, -1.584e-4
0.805, 1.672e-5, -1.583e-4
0.802, 1.735e-5, -1.582e-4
0.799, 1.766e-5, -1.581e-4
0.796, 1.790e-5, -1.580e-4
0.793, 1.777e-5, -1.579e-4
0.790, 1.852e-5, -1.577e-4
0.787, 1.875e-5, -1.576e-4
0.784, 1.852e-5, -1.575e-4
0.781, 1.943e-5, -1.574e-4
0.778, 1.945e-5, -1.573e-4
0.775, 1.945e-5, -1.572e-4
0.772, 2.019e-5, -1.570e-4
0.769, 2.052e-5, -1.569e-4
0.766, 2.078e-5, -1.568e-4
0.763, 2.083e-5, -1.567e-4
0.760, 2.159e-5, -1.565e-4
0.757, 2.189e-5, -1.564e-4
0.754, 2.179e-5, -1.563e-4
0.751, 2.287e-5, -1.561e-4
0.748, 2.308e-5, -1.560e-4
0.745, 2.321e-5, -1.559e-4
0.742, 2.394e-5, -1.557e-4
0.739, 2.448e-5, -1.556e-4
0.736, 2.495e-5, -1.554e-4
0.733, 2.509e-5, -1.553e-4
0.730, 2.599e-5, -1.551e-4
0.727, 2.641e-5, -1.550e-4
0.724, 2.633e-5, -1.548e-4
0.721, 2.743e-5, -1.546e-4
0.718, 2.773e-5, -1.545e-4
0.715, 2.799e-5, -1.543e-4
0.712, 2.864e-5, -1.541e-4
0.709, 2.914e-5, -1.540e-4
0.706, 2.960e-5, -1.538e-4
0.703, 2.970e-5, -1.536e-4
0.700, 3.075e-5, -1.534e-4
0.697, 3.105e-5, -1.532e-4
0.694, 3.105e-5, -1.530e-4
0.691, 3.215e-5, -1.529e-4
0.688, 3.248e-5, -1.527e-4
0.685, 3.278e-5, -1.525e-4
0.682, 3.362e-5, -1.523e-4
0.679, 3.427e-5, -1.521e-4
0.676, 3.488e-5, -1.518e-4
0.673, 3.509e-5, -1.516e-4
0.670, 3.625e-5, -1.514e-4
0.667, 3.691e-5, -1.512e-4
0.664, 3.711e-5, -1.510e-4
0.661, 3.850e-5, -1.507e-4
0.658, 3.900e-5, -1.505e-4
0.655, 3.965e-5, -1.503e-4
0.652, 4.071e-5, -1.500e-4
0.649, 4.168e-5, -1.498e-4
0.646, 4.247e-5, -1.495e-4
0.643, 4.292e-5, -1.493e-4
0.640, 4.425e-5, -1.490e-4
0.637, 4.509e-5, -1.487e-4
0.634, 4.540e-5, -1.485e-4
0.631, 4.699e-5, -1.482e-4
0.628, 4.769e-5, -1.479e-4
0.625, 4.837e-5, -1.476e-4
0.622, 4.949e-5, -1.473e-4
0.619, 5.053e-5, -1.470e-4
0.616, 5.148e-5, -1.467e-4
0.613, 5.176e-5, -1.464e-4
0.610, 5.328e-5, -1.461e-4
0.607, 5.430e-5, -1.457e-4
0.604, 5.488e-5, -1.454e-4
0.601, 5.655e-5, -1.451e-4
0.598, 5.752e-5, -1.447e-4
0.595, 5.847e-5, -1.444e-4
0.592, 5.986e-5, -1.440e-4
0.589, 6.114e-5, -1.436e-4
0.586, 6.249e-5, -1.433e-4
0.583, 6.342e-5, -1.429e-4
0.580, 6.527e-5, -1.425e-4
0.577, 6.668e-5, -1.421e-4
0.574, 6.755e-5, -1.417e-4
0.571, 6.978e-5, -1.413e-4
0.568, 7.132e-5, -1.408e-4
0.565, 7.274e-5, -1.404e-4
0.562, 7.474e-5, -1.400e-4
0.559, 7.651e-5, -1.395e-4
0.556, 7.831e-5, -1.390e-4
0.553, 7.960e-5, -1.385e-4
0.550, 8.197e-5, -1.381e-4
0.547, 8.367e-5, -1.376e-4
0.544, 8.503e-5, -1.370e-4
0.541, 8.751e-5, -1.365e-4
0.538, 8.921e-5, -1.360e-4
0.535, 9.095e-5, -1.354e-4
0.532, 9.296e-5, -1.349e-4
0.529, 9.511e-5, -1.343e-4
0.526, 9.714e-5, -1.337e-4
0.523, 9.853e-5, -1.331e-4
0.520, 1.012e-4, -1.325e-4
0.517, 1.034e-4, -1.319e-4
0.514, 1.050e-4, -1.313e-4
0.511, 1.078e-4, -1.306e-4
0.508, 1.100e-4, -1.300e-4
0.505, 1.120e-4, -1.293e-4
0.502, 1.143e-4, -1.286e-4
0.499, 1.169e-4, -1.279e-4
0.496, 1.194e-4, -1.272e-4
0.493, 1.214e-4, -1.265e-4
0.490, 1.244e-4, -1.257e-4
0.487, 1.270e-4, -1.250e-4
0.484, 1.292e-4, -1.242e-4
0.481, 1.325e-4, -1.234e-4
0.478, 1.351e-4, -1.226e-4
0.475, 1.377e-4, -1.218e-4
0.472, 1.405e-4, -1.209e-4
0.469, 1.434e-4, -1.200e-4
0.466, 1.460e-4, -1.192e-4
0.463, 1.481e-4, -1.183e-4
0.460, 1.513e-4, -1.174e-4
0.457, 1.537e-4, -1.165e-4
0.454, 1.556e-4, -1.155e-4
0.451, 1.584e-4, -1.146e-4
0.448, 1.605e-4, -1.136e-4
0.445, 1.625e-4, -1.126e-4
0.442, 1.644e-4, -1.116e-4
0.439, 1.667e-4, -1.106e-4
0.436, 1.686e-4, -1.096e-4
0.433, 1.698e-4, -1.086e-4
0.430, 1.720e-4, -1.076e-4
0.427, 1.736e-4, -1.065e-4
0.424, 1.746e-4, -1.055e-4
0.421, 1.763e-4, -1.044e-4
0.418, 1.774e-4, -1.034e-4
0.415, 1.783e-4, -1.023e-4
0.412, 1.792e-4, -1.012e-4
0.409, 1.803e-4, -1.001e-4
0.406, 1.810e-4, -9.906e-5
0.403, 1.809e-4, -9.797e-5
0.400, 1.818e-4, -9.688e-5
0.397, 1.822e-4, -9.579e-5
0.394, 1.819e-4, -9.470e-5
0.391, 1.823e-4, -9.361e-5
0.388, 1.820e-4, -9.251e-5
0.385, 1.814e-4, -9.143e-5
0.382, 1.805e-4, -9.034e-5
0.379, 1.797e-4, -8.926e-5
0.376, 1.786e-4, -8.819e-5
0.373, 1.765e-4, -8.713e-5
0.370, 1.753e-4, -8.608e-5
0.367, 1.734e-4, -8.504e-5
0.364, 1.709e-4, -8.402e-5
0.361, 1.690e-4, -8.300e-5
0.358, 1.665e-4, -8.200e-5
0.355, 1.638e-4, -8.102e-5
0.352, 1.610e-4, -8.005e-5
0.349, 1.584e-4, -7.910e-5
0.346, 1.555e-4, -7.817e-5
0.343, 1.519e-4, -7.726e-5
0.340, 1.492e-4, -7.636e-5
0.337, 1.458e-4, -7.549e-5
0.334, 1.421e-4, -7.464e-5
0.331, 1.392e-4, -7.380e-5
0.328, 1.358e-4, -7.299e-5
0.325, 1.323e-4, -7.219e-5
0.322, 1.288e-4, -7.142e-5
0.319, 1.257e-4, -7.067e-5
0.316, 1.223e-4, -6.993e-5
0.313, 1.187e-4, -6.922e-5
0.310, 1.159e-4, -6.852e-5
0.307, 1.128e-4, -6.785e-5
0.304, 1.093e-4, -6.719e-5
0.301, 1.066e-4, -6.655e-5
0.298, 1.034e-4, -6.593e-5
0.295, 1.003e-4, -6.533e-5
0.292, 9.734e-5, -6.475e-5
0.289, 9.460e-5, -6.418e-5
0.286, 9.172e-5, -6.363e-5
0.283, 8.863e-5, -6.310e-5
0.280, 8.637e-5, -6.258e-5
0.277, 8.370e-5, -6.208e-5
0.274, 8.085e-5, -6.159e-5
0.271, 7.889e-5, -6.112e-5
0.268, 7.647e-5, -6.066e-5
0.265, 7.418e-5, -6.021e-5
0.262, 7.216e-5, -5.978e-5
0.259, 7.024e-5, -5.936e-5
0.256, 6.835e-5, -5.895e-5
0.253, 6.622e-5, -5.855e-5
0.250, 6.480e-5, -5.816e-5
0.247, 6.314e-5, -5.778e-5
0.244, 6.118e-5, -5.742e-5
0.241, 6.016e-5, -5.706e-5
0.238, 5.857e-5, -5.670e-5
0.235, 5.708e-5, -5.636e-5
0.232, 5.592e-5, -5.603e-5
0.229, 5.482e-5, -5.570e-5
0.226, 5.353e-5, -5.538e-5
0.223, 5.216e-5, -5.506e-5
0.220, 5.140e-5, -5.476e-5
0.217, 5.026e-5, -5.445e-5
0.214, 4.885e-5, -5.416e-5
0.211, 4.829e-5, -5.387e-5
0.208, 4.718e-5, -5.359e-5
0.205, 4.591e-5, -5.331e-5
0.202, 4.516e-5, -5.304e-5
0.199, 4.429e-5, -5.278e-5
0.196, 4.342e-5, -5.251e-5
0.193, 4.231e-5, -5.226e-5
0.190, 4.181e-5, -5.201e-5
0.187, 4.084e-5, -5.177e-5
0.184, 3.973e-5, -5.153e-5
0.181, 3.941e-5, -5.129e-5
0.178, 3.841e-5, -5.106e-5
0.175, 3.760e-5, -5.083e-5
0.172, 3.704e-5, -5.061e-5
0.169, 3.642e-5, -5.039e-5
0.166, 3.578e-5, -5.018e-5
0.163, 3.490e-5, -4.997e-5
0.160, 3.464e-5, -4.976e-5
0.157, 3.405e-5, -4.956e-5
0.154, 3.325e-5, -4.936e-5
0.151, 3.313e-5, -4.916e-5
0.148, 3.252e-5, -4.896e-5
0.145, 3.199e-5, -4.877e-5
0.142, 3.165e-5, -4.858e-5
0.139, 3.131e-5, -4.839e-5
0.136, 3.087e-5, -4.821e-5
0.133, 3.012e-5, -4.803e-5
0.130, 3.008e-5, -4.785e-5
0.127, 2.953e-5, -4.767e-5
0.124, 2.890e-5, -4.750e-5
0.121, 2.898e-5, -4.732e-5
0.118, 2.845e-5, -4.715e-5
0.115, 2.796e-5, -4.698e-5
0.112, 2.778e-5, -4.682e-5
0.109, 2.750e-5, -4.665e-5
0.106, 2.723e-5, -4.649e-5
0.103, 2.668e-5, -4.633e-5
0.100, 2.669e-5, -4.617e-5
0.097, 2.636e-5, -4.601e-5
0.094, 2.579e-5, -4.586e-5
0.091, 2.603e-5, -4.570e-5
0.088, 2.568e-5, -4.555e-5
0.085, 2.541e-5, -4.539e-5
0.082, 2.535e-5, -4.524e-5
0.079, 2.534e-5, -4.509e-5
0.076, 2.522e-5, -4.494e-5
0.073, 2.485e-5, -4.479e-5
0.070, 2.522e-5, -4.464e-5
0.067, 2.508e-5, -4.449e-5
0.064, 2.478e-5, -4.434e-5
0.061, 2.533e-5, -4.419e-5
0.058, 2.527e-5, -4.404e-5
0.055, 2.527e-5, -4.388e-5
0.052, 2.554e-5, -4.373e-5
0.049, 2.579e-5, -4.358e-5
0.046, 2.593e-5, -4.342e-5
0.043, 2.575e-5, -4.327e-5
0.040, 2.652e-5, -4.311e-5
0.037, 2.668e-5, -4.295e-5
0.034, 2.654e-5, -4.279e-5
0.031, 2.749e-5, -4.262e-5
0.028, 2.767e-5, -4.246e-5
0.025, 2.796e-5, -4.229e-5
0.022, 2.842e-5, -4.212e-5
0.019, 2.916e-5, -4.194e-5
0.016, 2.969e-5, -4.176e-5
0.013, 2.971e-5, -4.159e-5
0.010, 3.120e-5, -4.140e-5
0.007, 3.182e-5, -4.121e-5
0.004, 3.206e-5, -4.102e-5
0.001, 3.359e-5, -4.081e-5
-0.002, 3.444e-5, -4.061e-5
-0.005, 3.543e-5, -4.040e-5
-0.008, 3.636e-5, -4.018e-5
-0.011, 3.806e-5, -3.995e-5
-0.014, 3.958e-5, -3.971e-5
-0.017, 4.006e-5, -3.947e-5
-0.020, 4.263e-5, -3.922e-5
-0.023, 4.415e-5, -3.895e-5
-0.026, 4.537e-5, -3.868e-5
-0.029, 4.814e-5, -3.839e-5
-0.032, 5.012e-5, -3.809e-5
-0.035, 5.235e-5, -3.777e-5
-0.038, 5.418e-5, -3.745e-5
-0.041, 5.737e-5, -3.711e-5
-0.044, 5.985e-5, -3.675e-5
-0.047, 6.117e-5, -3.638e-5
-0.050, 6.536e-5, -3.599e-5
-0.053, 6.784e-5, -3.558e-5
-0.056, 6.982e-5, -3.516e-5
-0.059, 7.344e-5, -3.472e-5
-0.062, 7.644e-5, -3.426e-5
-0.065, 7.919e-5, -3.379e-5
-0.068, 8.119e-5, -3.330e-5
-0.071, 8.520e-5, -3.279e-5
-0.074, 8.836e-5, -3.226e-5
-0.077, 8.945e-5, -3.172e-5
-0.080, 9.401e-5, -3.116e-5
-0.083, 9.664e-5, -3.058e-5
-0.086, 9.839e-5, -2.999e-5
-0.089, 1.018e-4, -2.938e-5
-0.092, 1.046e-4, -2.875e-5
-0.095, 1.072e-4, -2.811e-5
-0.098, 1.084e-4, -2.745e-5
-0.101, 1.121e-4, -2.678e-5
-0.104, 1.144e-4, -2.610e-5
-0.107, 1.147e-4, -2.541e-5
-0.110, 1.185e-4, -2.470e-5
-0.113, 1.203e-4, -2.397e-5
-0.116, 1.210e-4, -2.325e-5
-0.119, 1.229e-4, -2.251e-5
-0.122, 1.245e-4, -2.176e-5
-0.125, 1.252e-4, -2.101e-5
-0.128, 1.242e-4, -2.027e-5
-0.131, 1.262e-4, -1.951e-5
-0.134, 1.264e-4, -1.875e-5
-0.137, 1.246e-4, -1.800e-5
-0.140, 1.263e-4, -1.725e-5
-0.143, 1.259e-4, -1.649e-5
-0.146, 1.248e-4, -1.574e-5
-0.149, 1.250e-4, -1.499e-5
-0.152, 1.252e-4, -1.424e-5
-0.155, 1.255e-4, -1.349e-5
-0.158, 1.240e-4, -1.274e-5
-0.161, 1.259e-4, -1.199e-5
-0.164, 1.263e-4, -1.123e-5
-0.167, 1.247e-4, -1.048e-5
-0.170, 1.273e-4, -9.719e-6
-0.173, 1.276e-4, -8.953e-6
-0.176, 1.276e-4, -8.188e-6
-0.179, 1.295e-4, -7.411e-6
-0.182, 1.314e-4, -6.622e-6
-0.185, 1.333e-4, -5.822e-6
-0.188, 1.335e-4, -5.021e-6
-0.191, 1.373e-4, -4.198e-6
-0.194, 1.397e-4, -3.359e-6
-0.197, 1.405e-4, -2.516e-6
-0.200, 1.449e-4, -1.647e-6
-0.203, 1.478e-4, -7.600e-7
-0.206, 1.486e-4, 1.314e-7
-0.209, 1.525e-4, 1.047e-6
-0.212, 1.559e-4, 1.982e-6
-0.215, 1.587e-4, 2.934e-6
-0.218, 1.598e-4, 3.893e-6
-0.221, 1.642e-4, 4.879e-6
-0.224, 1.664e-4, 5.877e-6
-0.227, 1.670e-4, 6.879e-6
-0.230, 1.711e-4, 7.906e-6
-0.233, 1.729e-4, 8.943e-6
-0.236, 1.740e-4, 9.987e-6
-0.239, 1.759e-4, 1.104e-5
-0.242, 1.788e-4, 1.212e-5
-0.245, 1.809e-4, 1.320e-5
-0.248, 1.807e-4, 1.429e-5
-0.251, 1.837e-4, 1.539e-5
-0.254, 1.851e-4, 1.650e-5
-0.257, 1.842e-4, 1.760e-5
-0.260, 1.868e-4, 1.872e-5
-0.263, 1.872e-4, 1.985e-5
-0.266, 1.868e-4, 2.097e-5
-0.269, 1.876e-4, 2.209e-5
-0.272, 1.887e-4, 2.323e-5
-0.275, 1.890e-4, 2.436e-5
-0.278, 1.879e-4, 2.549e-5
-0.281, 1.905e-4, 2.663e-5
-0.284, 1.911e-4, 2.778e-5
-0.287, 1.898e-4, 2.891e-5
-0.290, 1.928e-4, 3.007e-5
-0.293, 1.939e-4, 3.123e-5
-0.296, 1.945e-4, 3.240e-5
-0.299, 1.952e-4, 3.357e-5

Segment 3:
-0.298, 1.260e-4, 3.433e-5
-0.295, 6.982e-5, 3.475e-5
-0.292, 3.238e-5, 3.494e-5
-0.289, 7.826e-6, 3.499e-5
-0.286, -1.239e-5, 3.491e-5
-0.283, -3.065e-5, 3.473e-5
-0.280, -4.234e-5, 3.448e-5
-0.277, -5.417e-5, 3.415e-5
-0.274, -6.444e-5, 3.376e-5
-0.271, -7.265e-5, 3.333e-5
-0.268, -7.864e-5, 3.286e-5
-0.265, -8.492e-5, 3.235e-5
-0.262, -9.156e-5, 3.180e-5
-0.259, -9.433e-5, 3.123e-5
-0.256, -9.863e-5, 3.064e-5
-0.253, -1.044e-4, 3.001e-5
-0.250, -1.052e-4, 2.938e-5
-0.247, -1.081e-4, 2.873e-5
-0.244, -1.118e-4, 2.806e-5
-0.241, -1.141e-4, 2.738e-5
-0.238, -1.153e-4, 2.669e-5
-0.235, -1.171e-4, 2.599e-5
-0.232, -1.204e-4, 2.526e-5
-0.229, -1.201e-4, 2.454e-5
-0.226, -1.216e-4, 2.381e-5
-0.223, -1.252e-4, 2.306e-5
-0.220, -1.244e-4, 2.232e-5
-0.217, -1.255e-4, 2.156e-5
-0.214, -1.270e-4, 2.080e-5
-0.211, -1.274e-4, 2.004e-5
-0.208, -1.267e-4, 1.928e-5
-0.205, -1.263e-4, 1.852e-5
-0.202, -1.283e-4, 1.775e-5
-0.199, -1.266e-4, 1.699e-5
-0.196, -1.267e-4, 1.623e-5
-0.193, -1.284e-4, 1.546e-5
-0.190, -1.263e-4, 1.470e-5
-0.187, -1.260e-4, 1.394e-5
-0.184, -1.263e-4, 1.319e-5
-0.181, -1.255e-4, 1.243e-5
-0.178, -1.232e-4, 1.169e-5
-0.175, -1.219e-4, 1.096e-5
-0.172, -1.223e-4, 1.023e-5
-0.169, -1.190e-4, 9.514e-6
-0.166, -1.176e-4, 8.809e-6
-0.163, -1.179e-4, 8.101e-6
-0.160, -1.148e-4, 7.412e-6
-0.157, -1.136e-4, 6.730e-6
-0.154, -1.130e-4, 6.053e-6
-0.151, -1.113e-4, 5.385e-6
-0.148, -1.092e-4, 4.730e-6
-0.145, -1.080e-4, 4.082e-6
-0.142, -1.088e-4, 3.429e-6
-0.139, -1.062e-4, 2.792e-6
-0.136, -1.056e-4, 2.158e-6
-0.133, -1.068e-4, 1.518e-6
-0.130, -1.046e-4, 8.899e-7
-0.127, -1.044e-4, 2.634e-7
-0.124, -1.052e-4, -3.679e-7
-0.121, -1.051e-4, -9.987e-7
-0.118, -1.048e-4, -1.627e-6
-0.115, -1.052e-4, -2.258e-6
-0.112, -1.074e-4, -2.903e-6
-0.109, -1.065e-4, -3.541e-6
-0.106, -1.077e-4, -4.188e-6
-0.103, -1.106e-4, -4.851e-6
-0.100, -1.100e-4, -5.511e-6
-0.097, -1.109e-4, -6.176e-6
-0.094, -1.122e-4, -6.850e-6
-0.091, -1.125e-4, -7.524e-6
-0.088, -1.122e-4, -8.198e-6
-0.085, -1.129e-4, -8.875e-6
-0.082, -1.149e-4, -9.564e-6
-0.079, -1.135e-4, -1.025e-5
-0.076, -1.139e-4, -1.093e-5
-0.073, -1.160e-4, -1.162e-5
-0.070, -1.144e-4, -1.231e-5
-0.067, -1.146e-4, -1.300e-5
-0.064, -1.152e-4, -1.369e-5
-0.061, -1.152e-4, -1.438e-5
-0.058, -1.143e-4, -1.507e-5
-0.055, -1.140e-4, -1.575e-5
-0.052, -1.152e-4, -1.644e-5
-0.049, -1.122e-4, -1.711e-5
-0.046, -1.112e-4, -1.778e-5
-0.043, -1.112e-4, -1.845e-5
-0.040, -1.076e-4, -1.910e-5
-0.037, -1.059e-4, -1.973e-5
-0.034, -1.039e-4, -2.035e-5
-0.031, -1.006e-4, -2.096e-5
-0.028, -9.679e-5, -2.154e-5
-0.025, -9.305e-5, -2.210e-5
-0.022, -9.059e-5, -2.264e-5
-0.019, -8.509e-5, -2.315e-5
-0.016, -8.075e-5, -2.364e-5
-0.013, -7.760e-5, -2.410e-5
-0.010, -7.155e-5, -2.453e-5
-0.007, -6.708e-5, -2.493e-5
-0.004, -6.309e-5, -2.531e-5
-0.001, -5.838e-5, -2.566e-5
0.002, -5.389e-5, -2.598e-5
0.005, -5.041e-5, -2.629e-5
0.008, -4.797e-5, -2.658e-5
0.011, -4.444e-5, -2.684e-5
0.014, -4.199e-5, -2.709e-5
0.017, -4.066e-5, -2.734e-5
0.020, -3.742e-5, -2.756e-5
0.023, -3.602e-5, -2.778e-5
0.026, -3.482e-5, -2.799e-5
0.029, -3.288e-5, -2.818e-5
0.032, -3.140e-5, -2.837e-5
0.035, -3.021e-5, -2.855e-5
0.038, -2.946e-5, -2.873e-5
0.041, -2.773e-5, -2.890e-5
0.044, -2.681e-5, -2.906e-5
0.047, -2.648e-5, -2.922e-5
0.050, -2.483e-5, -2.937e-5
0.053, -2.425e-5, -2.951e-5
0.056, -2.368e-5, -2.965e-5
0.059, -2.258e-5, -2.979e-5
0.062, -2.194e-5, -2.992e-5
0.065, -2.135e-5, -3.005e-5
0.068, -2.101e-5, -3.018e-5
0.071, -2.014e-5, -3.030e-5
0.074, -1.966e-5, -3.041e-5
0.077, -1.961e-5, -3.053e-5
0.080, -1.850e-5, -3.064e-5
0.083, -1.839e-5, -3.075e-5
0.086, -1.831e-5, -3.086e-5
0.089, -1.753e-5, -3.097e-5
0.092, -1.728e-5, -3.107e-5
0.095, -1.709e-5, -3.117e-5
0.098, -1.694e-5, -3.128e-5
0.101, -1.639e-5, -3.137e-5
0.104, -1.622e-5, -3.147e-5
0.107, -1.633e-5, -3.157e-5
0.110, -1.559e-5, -3.166e-5
0.113, -1.564e-5, -3.176e-5
0.116, -1.570e-5, -3.185e-5
0.119, -1.524e-5, -3.194e-5
0.122, -1.512e-5, -3.203e-5
0.125, -1.505e-5, -3.212e-5
0.128, -1.506e-5, -3.221e-5
0.131, -1.473e-5, -3.230e-5
0.134, -1.470e-5, -3.239e-5
0.137, -1.495e-5, -3.248e-5
0.140, -1.434e-5, -3.257e-5
0.143, -1.455e-5, -3.265e-5
0.146, -1.468e-5, -3.274e-5
0.149, -1.431e-5, -3.283e-5
0.152, -1.423e-5, -3.291e-5
0.155, -1.428e-5, -3.300e-5
0.158, -1.436e-5, -3.308e-5
0.161, -1.393e-5, -3.317e-5
0.164, -1.396e-5, -3.325e-5
0.167, -1.419e-5, -3.334e-5
0.170, -1.361e-5, -3.342e-5
0.173, -1.371e-5, -3.350e-5
0.176, -1.386e-5, -3.358e-5
0.179, -1.345e-5, -3.366e-5
0.182, -1.346e-5, -3.375e-5
0.185, -1.343e-5, -3.383e-5
0.188, -1.344e-5, -3.391e-5
0.191, -1.313e-5, -3.399e-5
0.194, -1.316e-5, -3.406e-5
0.197, -1.343e-5, -3.414e-5
0.200, -1.287e-5, -3.422e-5
0.203, -1.304e-5, -3.430e-5
0.206, -1.312e-5, -3.438e-5
0.209, -1.284e-5, -3.446e-5
0.212, -1.291e-5, -3.453e-5
0.215, -1.290e-5, -3.461e-5
0.218, -1.306e-5, -3.469e-5
0.221, -1.277e-5, -3.477e-5
0.224, -1.281e-5, -3.484e-5
0.227, -1.316e-5, -3.492e-5
0.230, -1.267e-5, -3.500e-5
0.233, -1.292e-5, -3.508e-5
0.236, -1.313e-5, -3.515e-5
0.239, -1.277e-5, -3.523e-5
0.242, -1.285e-5, -3.531e-5
0.245, -1.288e-5, -3.539e-5
0.248, -1.301e-5, -3.546e-5
0.251, -1.270e-5, -3.554e-5
0.254, -1.278e-5, -3.562e-5
0.257, -1.315e-5, -3.569e-5
0.260, -1.258e-5, -3.577e-5
0.263, -1.274e-5, -3.585e-5
0.266, -1.297e-5, -3.592e-5
0.269, -1.262e-5, -3.600e-5
0.272, -1.264e-5, -3.608e-5
0.275, -1.262e-5, -3.615e-5
0.278, -1.278e-5, -3.623e-5
0.281, -1.254e-5, -3.630e-5
0.284, -1.260e-5, -3.638e-5
0.287, -1.296e-5, -3.646e-5
0.290, -1.250e-5, -3.653e-5
0.293, -1.274e-5, -3.661e-5
0.296, -1.299e-5, -3.669e-5
0.299, -1.268e-5, -3.676e-5
0.302, -1.282e-5, -3.684e-5
0.305, -1.292e-5, -3.692e-5
0.308, -1.323e-5, -3.700e-5
0.311, -1.290e-5, -3.707e-5
0.314, -1.307e-5, -3.715e-5
0.317, -1.351e-5, -3.723e-5
0.320, -1.311e-5, -3.731e-5
0.323, -1.340e-5, -3.739e-5
0.326, -1.362e-5, -3.747e-5
0.329, -1.342e-5, -3.755e-5
0.332, -1.345e-5, -3.764e-5
0.335, -1.359e-5, -3.772e-5
0.338, -1.383e-5, -3.780e-5
0.341, -1.362e-5, -3.788e-5
0.344, -1.376e-5, -3.796e-5
0.347, -1.416e-5, -3.805e-5
0.350, -1.374e-5, -3.813e-5
0.353, -1.402e-5, -3.822e-5
0.356, -1.428e-5, -3.830e-5
0.359, -1.412e-5, -3.839e-5
0.362, -1.416e-5, -3.847e-5
0.365, -1.428e-5, -3.856e-5
0.368, -1.460e-5, -3.864e-5
0.371, -1.443e-5, -3.873e-5
0.374, -1.461e-5, -3.882e-5
0.377, -1.517e-5, -3.891e-5
0.380, -1.478e-5, -3.900e-5
0.383, -1.513e-5, -3.909e-5
0.386, -1.553e-5, -3.918e-5
0.389, -1.548e-5, -3.928e-5
0.392, -1.570e-5, -3.937e-5
0.395, -1.591e-5, -3.946e-5
0.398, -1.643e-5, -3.956e-5
0.401, -1.634e-5, -3.966e-5
0.404, -1.665e-5, -3.976e-5
0.407, -1.736e-5, -3.987e-5
0.410, -1.710e-5, -3.997e-5
0.413, -1.758e-5, -4.007e-5
0.416, -1.801e-5, -4.018e-5
0.419, -1.799e-5, -4.029e-5
0.422, -1.827e-5, -4.040e-5
0.425, -1.863e-5, -4.051e-5
0.428, -1.923e-5, -4.063e-5
0.431, -1.911e-5, -4.074e-5
0.434, -1.950e-5, -4.086e-5
0.437, -2.031e-5, -4.098e-5
0.440, -2.002e-5, -4.110e-5
0.443, -2.053e-5, -4.122e-5
0.446, -2.109e-5, -4.135e-5
0.449, -2.123e-5, -4.148e-5
0.452, -2.157e-5, -4.161e-5
0.455, -2.200e-5, -4.174e-5
0.458, -2.287e-5, -4.188e-5
0.461, -2.293e-5, -4.201e-5
0.464, -2.348e-5, -4.215e-5
0.467, -2.453e-5, -4.230e-5
0.470, -2.443e-5, -4.245e-5
0.473, -2.533e-5, -4.260e-5
0.476, -2.615e-5, -4.276e-5
0.479, -2.667e-5, -4.292e-5
0.482, -2.719e-5, -4.308e-5
0.485, -2.803e-5, -4.325e-5
0.488, -2.932e-5, -4.342e-5
0.491, -2.971e-5, -4.360e-5
0.494, -3.063e-5, -4.379e-5
0.497, -3.230e-5, -4.398e-5
0.500, -3.268e-5, -4.418e-5
0.503, -3.392e-5, -4.438e-5
0.506, -3.524e-5, -4.459e-5
0.509, -3.634e-5, -4.481e-5
0.512, -3.753e-5, -4.503e-5
0.515, -3.882e-5, -4.527e-5
0.518, -4.082e-5, -4.551e-5
0.521, -4.165e-5, -4.576e-5
0.524, -4.325e-5, -4.602e-5
0.527, -4.550e-5, -4.629e-5
0.530, -4.628e-5, -4.657e-5
0.533, -4.802e-5, -4.686e-5
0.536, -4.986e-5, -4.716e-5
0.539, -5.147e-5, -4.747e-5
0.542, -5.289e-5, -4.779e-5
0.545, -5.454e-5, -4.811e-5
0.548, -5.693e-5, -4.845e-5
0.551, -5.782e-5, -4.880e-5
0.554, -5.954e-5, -4.916e-5
0.557, -6.179e-5, -4.953e-5
0.560, -6.260e-5, -4.991e-5
0.563, -6.445e-5, -5.029e-5
0.566, -6.614e-5, -5.069e-5
0.569, -6.765e-5, -5.109e-5
0.572, -6.886e-5, -5.151e-5
0.575, -7.033e-5, -5.193e-5
0.578, -7.254e-5, -5.236e-5
0.581, -7.312e-5, -5.280e-5
0.584, -7.462e-5, -5.325e-5
0.587, -7.651e-5, -5.371e-5
0.590, -7.681e-5, -5.417e-5
0.593, -7.811e-5, -5.464e-5
0.596, -7.939e-5, -5.512e-5
0.599, -8.047e-5, -5.560e-5
0.602, -8.114e-5, -5.609e-5
0.605, -8.203e-5, -5.658e-5
0.608, -8.387e-5, -5.708e-5
0.611, -8.393e-5, -5.758e-5
0.614, -8.455e-5, -5.809e-5
0.617, -8.618e-5, -5.861e-5
0.620, -8.640e-5, -5.913e-5
0.623, -8.738e-5, -5.965e-5
0.626, -8.848e-5, -6.018e-5
0.629, -8.958e-5, -6.072e-5
0.632, -9.003e-5, -6.126e-5
0.635, -9.086e-5, -6.181e-5
0.638, -9.258e-5, -6.236e-5
0.641, -9.242e-5, -6.292e-5
0.644, -9.357e-5, -6.348e-5
0.647, -9.519e-5, -6.405e-5
0.650, -9.525e-5, -6.462e-5
0.653, -9.626e-5, -6.520e-5
0.656, -9.725e-5, -6.578e-5
0.659, -9.846e-5, -6.637e-5
0.662, -9.889e-5, -6.696e-5
0.665, -9.977e-5, -6.756e-5
0.668, -1.015e-4, -6.817e-5
0.671, -1.013e-4, -6.878e-5
0.674, -1.021e-4, -6.939e-5
0.677, -1.033e-4, -7.001e-5
0.680, -1.031e-4, -7.063e-5
0.683, -1.036e-4, -7.125e-5
0.686, -1.041e-4, -7.188e-5
0.689, -1.048e-4, -7.251e-5
0.692, -1.045e-4, -7.313e-5
0.695, -1.048e-4, -7.376e-5
0.698, -1.059e-4, -7.440e-5
0.701, -1.053e-4, -7.503e-5
0.704, -1.056e-4, -7.566e-5
0.707, -1.066e-4, -7.630e-5
0.710, -1.063e-4, -7.694e-5
0.713, -1.066e-4, -7.758e-5
0.716, -1.071e-4, -7.822e-5
0.719, -1.077e-4, -7.887e-5
0.722, -1.074e-4, -7.951e-5
0.725, -1.076e-4, -8.016e-5
0.728, -1.088e-4, -8.081e-5
0.731, -1.081e-4, -8.146e-5
0.734, -1.087e-4, -8.211e-5
0.737, -1.095e-4, -8.277e-5
0.740, -1.093e-4, -8.342e-5
0.743, -1.098e-4, -8.408e-5
0.746, -1.103e-4, -8.475e-5
0.749, -1.109e-4, -8.541e-5
0.752, -1.110e-4, -8.608e-5
0.755, -1.113e-4, -8.675e-5
0.758, -1.123e-4, -8.742e-5
0.761, -1.117e-4, -8.809e-5
0.764, -1.121e-4, -8.876e-5
0.767, -1.129e-4, -8.944e-5
0.770, -1.124e-4, -9.011e-5
0.773, -1.126e-4, -9.079e-5
0.776, -1.128e-4, -9.147e-5
0.779, -1.131e-4, -9.214e-5
0.782, -1.128e-4, -9.282e-5
0.785, -1.128e-4, -9.350e-5
0.788, -1.136e-4, -9.418e-5
0.791, -1.130e-4, -9.486e-5
0.794, -1.131e-4, -9.554e-5
0.797, -1.139e-4, -9.622e-5
0.800, -1.135e-4, -9.690e-5
0.803, -1.137e-4, -9.758e-5
0.806, -1.140e-4, -9.827e-5
0.809, -1.145e-4, -9.895e-5
0.812, -1.144e-4, -9.964e-5
0.815, -1.146e-4, -1.003e-4
0.818, -1.156e-4, -1.010e-4
0.821, -1.150e-4, -1.017e-4
0.824, -1.156e-4, -1.024e-4
0.827, -1.166e-4, -1.031e-4
0.830, -1.166e-4, -1.038e-4
0.833, -1.170e-4, -1.045e-4
0.836, -1.177e-4, -1.052e-4
0.839, -1.183e-4, -1.059e-4
0.842, -1.184e-4, -1.066e-4
0.845, -1.187e-4, -1.073e-4
0.848, -1.197e-4, -1.081e-4
0.851, -1.194e-4, -1.088e-4
0.854, -1.198e-4, -1.095e-4
0.857, -1.206e-4, -1.102e-4
0.860, -1.204e-4, -1.109e-4
0.863, -1.208e-4, -1.117e-4
0.866, -1.212e-4, -1.124e-4
0.869, -1.217e-4, -1.131e-4
0.872, -1.217e-4, -1.139e-4
0.875, -1.220e-4, -1.146e-4
0.878, -1.229e-4, -1.153e-4
0.881, -1.227e-4, -1.161e-4
0.884, -1.232e-4, -1.168e-4
0.887, -1.241e-4, -1.175e-4
0.890, -1.239e-4, -1.183e-4
0.893, -1.245e-4, -1.190e-4
0.896, -1.250e-4, -1.198e-4
0.899, -1.258e-4, -1.205e-4
0.902, -1.261e-4, -1.213e-4
0.905, -1.266e-4, -1.221e-4
0.908, -1.278e-4, -1.228e-4
0.911, -1.279e-4, -1.236e-4
0.914, -1.287e-4, -1.244e-4
0.917, -1.299e-4, -1.251e-4
0.920, -1.301e-4, -1.259e-4
0.923, -1.311e-4, -1.267e-4
0.926, -1.317e-4, -1.275e-4
0.929, -1.325e-4, -1.283e-4
0.932, -1.327e-4, -1.291e-4
0.935, -1.333e-4, -1.299e-4
0.938, -1.344e-4, -1.307e-4
0.941, -1.341e-4, -1.315e-4
0.944, -1.348e-4, -1.323e-4
0.947, -1.357e-4, -1.331e-4
0.950, -1.356e-4, -1.339e-4
0.953, -1.360e-4, -1.348e-4
0.956, -1.365e-4, -1.356e-4
0.959, -1.371e-4, -1.364e-4
0.962, -1.373e-4, -1.372e-4
0.965, -1.377e-4, -1.380e-4
0.968, -1.387e-4, -1.389e-4
0.971, -1.386e-4, -1.397e-4
0.974, -1.393e-4, -1.405e-4
0.977, -1.400e-4, -1.414e-4
0.980, -1.400e-4, -1.422e-4
0.983, -1.406e-4, -1.431e-4
0.986, -1.412e-4, -1.439e-4
0.989, -1.419e-4, -1.448e-4
0.992, -1.422e-4, -1.456e-4
0.995, -1.427e-4, -1.465e-4
0.998, -1.440e-4, -1.473e-4
1.001, -1.441e-4, -1.482e-4
1.004, -1.449e-4, -1.491e-4
1.007, -1.459e-4, -1.499e-4
1.010, -1.462e-4, -1.508e-4
1.013, -1.467e-4, -1.517e-4
1.016, -1.473e-4, -1.526e-4
1.019, -1.480e-4, -1.535e-4
1.022, -1.481e-4, -1.544e-4
1.025, -1.481e-4, -1.553e-4
1.028, -1.492e-4, -1.562e-4
1.031, -1.490e-4, -1.570e-4
1.034, -1.494e-4, -1.579e-4
1.037, -1.501e-4, -1.588e-4
1.040, -1.501e-4, -1.597e-4
1.043, -1.504e-4, -1.606e-4
1.046, -1.508e-4, -1.615e-4
1.049, -1.514e-4, -1.625e-4
1.052, -1.514e-4, -1.634e-4
1.055, -1.518e-4, -1.643e-4
1.058, -1.527e-4, -1.652e-4
1.061, -1.524e-4, -1.661e-4
1.064, -1.529e-4, -1.670e-4
1.067, -1.537e-4, -1.679e-4
1.070, -1.538e-4, -1.689e-4
1.073, -1.542e-4, -1.698e-4
1.076, -1.548e-4, -1.707e-4
1.079, -1.556e-4, -1.717e-4
1.082, -1.558e-4, -1.726e-4
1.085, -1.564e-4, -1.735e-4
1.088, -1.576e-4, -1.745e-4
1.091, -1.577e-4, -1.754e-4
1.094, -1.584e-4, -1.764e-4
1.097, -1.592e-4, -1.773e-4
1.100, -1.520e-4, -1.782e-4

Segment 4:
1.097, -1.295e-4, -1.790e-4
1.094, -1.152e-4, -1.797e-4
1.091, -1.033e-4, -1.803e-4
1.088, -9.267e-5, -1.809e-4
1.085, -8.357e-5, -1.814e-4
1.082, -7.611e-5, -1.818e-4
1.079, -6.844e-5, -1.823e-4
1.076, -6.224e-5, -1.826e-4
1.073, -5.703e-5, -1.830e-4
1.070, -5.147e-5, -1.833e-4
1.067, -4.705e-5, -1.836e-4
1.064, -4.309e-5, -1.838e-4
1.061, -3.951e-5, -1.841e-4
1.058, -3.587e-5, -1.843e-4
1.055, -3.287e-5, -1.845e-4
1.052, -3.045e-5, -1.847e-4
1.049, -2.739e-5, -1.848e-4
1.046, -2.532e-5, -1.850e-4
1.043, -2.343e-5, -1.851e-4
1.040, -2.099e-5, -1.852e-4
1.037, -1.937e-5, -1.853e-4
1.034, -1.779e-5, -1.855e-4
1.031, -1.633e-5, -1.856e-4
1.028, -1.462e-5, -1.856e-4
1.025, -1.348e-5, -1.857e-4
1.022, -1.264e-5, -1.858e-4
1.019, -1.078e-5, -1.859e-4
1.016, -9.862e-6, -1.859e-4
1.013, -9.174e-6, -1.860e-4
1.010, -7.583e-6, -1.860e-4
1.007, -6.730e-6, -1.861e-4
1.004, -5.981e-6, -1.861e-4
1.001, -5.208e-6, -1.861e-4
0.998, -4.220e-6, -1.862e-4
0.995, -3.405e-6, -1.862e-4
0.992, -3.105e-6, -1.862e-4
0.989, -1.803e-6, -1.862e-4
0.986, -1.382e-6, -1.862e-4
0.983, -1.103e-6, -1.862e-4
0.980, 6.317e-9, -1.862e-4
0.977, 3.568e-7, -1.862e-4
0.974, 8.367e-7, -1.862e-4
0.971, 1.247e-6, -1.862e-4
0.968, 1.947e-6, -1.862e-4
0.965, 2.308e-6, -1.862e-4
0.962, 2.231e-6, -1.862e-4
0.959, 3.325e-6, -1.861e-4
0.956, 3.445e-6, -1.861e-4
0.953, 3.456e-6, -1.861e-4
0.950, 4.273e-6, -1.861e-4
0.947, 4.453e-6, -1.861e-4
0.944, 4.717e-6, -1.860e-4
0.941, 4.968e-6, -1.860e-4
0.938, 5.556e-6, -1.860e-4
0.935, 5.840e-6, -1.859e-4
0.932, 5.770e-6, -1.859e-4
0.929, 6.725e-6, -1.859e-4
0.926, 6.772e-6, -1.858e-4
0.923, 6.770e-6, -1.858e-4
0.920, 7.771e-6, -1.857e-4
0.917, 7.900e-6, -1.857e-4
0.914, 8.077e-6, -1.856e-4
0.911, 8.313e-6, -1.856e-4
0.908, 8.896e-6, -1.855e-4
0.905, 9.226e-6, -1.855e-4
0.902, 9.008e-6, -1.854e-4
0.899, 9.982e-6, -1.854e-4
0.896, 9.949e-6, -1.853e-4
0.893, 9.943e-6, -1.852e-4
0.890, 1.061e-5, -1.852e-4
0.887, 1.076e-5, -1.851e-4
0.884, 1.098e-5, -1.850e-4
0.881, 1.102e-5, -1.850e-4
0.878, 1.154e-5, -1.849e-4
0.875, 1.172e-5, -1.848e-4
0.872, 1.151e-5, -1.848e-4
0.869, 1.238e-5, -1.847e-4
0.866, 1.226e-5, -1.846e-4
0.863, 1.215e-5, -1.845e-4
0.860, 1.286e-5, -1.845e-4
0.857, 1.300e-5, -1.844e-4
0.854, 1.319e-5, -1.843e-4
0.851, 1.325e-5, -1.842e-4
0.848, 1.379e-5, -1.841e-4
0.845, 1.401e-5, -1.841e-4
0.842, 1.382e-5, -1.840e-4
0.839, 1.475e-5, -1.839e-4
0.836, 1.484e-5, -1.838e-4
0.833, 1.478e-5, -1.837e-4
0.830, 1.552e-5, -1.836e-4
0.827, 1.580e-5, -1.835e-4
0.824, 1.603e-5, -1.834e-4
0.821, 1.623e-5, -1.833e-4
0.818, 1.676e-5, -1.832e-4
0.815, 1.707e-5, -1.831e-4
0.812, 1.691e-5, -1.830e-4
0.809, 1.782e-5, -1.829e-4
0.806, 1.787e-5, -1.828e-4
0.803, 1.782e-5, -1.827e-4
0.800, 1.854e-5, -1.826e-4
0.797, 1.874e-5, -1.825e-4
0.794, 1.889e-5, -1.824e-4
0.791, 1.900e-5, -1.823e-4
0.788, 1.970e-5, -1.821e-4
0.785, 1.989e-5, -1.820e-4
0.782, 1.966e-5, -1.819e-4
0.779, 2.053e-5, -1.818e-4
0.776, 2.060e-5, -1.817e-4
0.773, 2.063e-5, -1.815e-4
0.770, 2.136e-5, -1.814e-4
0.767, 2.169e-5, -1.813e-4
0.764, 2.193e-5, -1.811e-4
0.761, 2.207e-5, -1.810e-4
0.758, 2.280e-5, -1.809e-4
0.755, 2.318e-5, -1.807e-4
0.752, 2.309e-5, -1.806e-4
0.749, 2.420e-5, -1.805e-4
0.746, 2.434e-5, -1.803e-4
0.743, 2.442e-5, -1.802e-4
0.740, 2.534e-5, -1.800e-4
0.737, 2.586e-5, -1.799e-4
0.734, 2.632e-5, -1.797e-4
0.731, 2.651e-5, -1.795e-4
0.728, 2.737e-5, -1.794e-4
0.725, 2.777e-5, -1.792e-4
0.722, 2.770e-5, -1.790e-4
0.719, 2.887e-5, -1.789e-4
0.716, 2.915e-5, -1.787e-4
0.713, 2.930e-5, -1.785e-4
0.710, 3.013e-5, -1.783e-4
0.707, 3.065e-5, -1.781e-4
0.704, 3.108e-5, -1.780e-4
0.701, 3.123e-5, -1.778e-4
0.698, 3.212e-5, -1.776e-4
0.695, 3.256e-5, -1.774e-4
0.692, 3.252e-5, -1.772e-4
0.689, 3.371e-5, -1.770e-4
0.686, 3.404e-5, -1.768e-4
0.683, 3.431e-5, -1.766e-4
0.680, 3.529e-5, -1.764e-4
0.677, 3.590e-5, -1.762e-4
0.674, 3.654e-5, -1.759e-4
0.671, 3.686e-5, -1.757e-4
0.668, 3.800e-5, -1.755e-4
0.665, 3.886e-5, -1.753e-4
0.662, 3.899e-5, -1.750e-4
0.659, 4.035e-5, -1.748e-4
0.656, 4.100e-5, -1.745e-4
0.653, 4.161e-5, -1.743e-4
0.650, 4.281e-5, -1.740e-4
0.647, 4.367e-5, -1.738e-4
0.644, 4.465e-5, -1.735e-4
0.641, 4.510e-5, -1.732e-4
0.638, 4.652e-5, -1.729e-4
0.635, 4.736e-5, -1.727e-4
0.632, 4.771e-5, -1.724e-4
0.629, 4.935e-5, -1.721e-4
0.626, 5.001e-5, -1.718e-4
0.623, 5.071e-5, -1.715e-4
0.620, 5.191e-5, -1.712e-4
0.617, 5.302e-5, -1.708e-4
0.614, 5.362e-5, -1.705e-4
0.611, 5.450e-5, -1.702e-4
0.608, 5.603e-5, -1.699e-4
0.605, 5.710e-5, -1.695e-4
0.602, 5.769e-5, -1.692e-4
0.599, 5.947e-5, -1.688e-4
0.596, 6.052e-5, -1.684e-4
0.593, 6.148e-5, -1.681e-4
0.590, 6.308e-5, -1.677e-4
0.587, 6.444e-5, -1.673e-4
0.584, 6.591e-5, -1.669e-4
0.581, 6.692e-5, -1.665e-4
0.578, 6.883e-5, -1.661e-4
0.575, 7.045e-5, -1.657e-4
0.572, 7.154e-5, -1.653e-4
0.569, 7.383e-5, -1.648e-4
0.566, 7.545e-5, -1.644e-4
0.563, 7.711e-5, -1.639e-4
0.560, 7.904e-5, -1.634e-4
0.557, 8.110e-5, -1.629e-4
0.554, 8.296e-5, -1.624e-4
0.551, 8.434e-5, -1.619e-4
0.548, 8.686e-5, -1.614e-4
0.545, 8.881e-5, -1.609e-4
0.542, 9.021e-5, -1.603e-4
0.539, 9.277e-5, -1.598e-4
0.536, 9.471e-5, -1.592e-4
0.533, 9.657e-5, -1.586e-4
0.530, 9.873e-5, -1.580e-4
0.527, 1.010e-4, -1.574e-4
0.524, 1.032e-4, -1.568e-4
0.521, 1.049e-4, -1.562e-4
0.518, 1.077e-4, -1.555e-4
0.515, 1.100e-4, -1.549e-4
0.512, 1.120e-4, -1.542e-4
0.509, 1.149e-4, -1.535e-4
0.506, 1.172e-4, -1.528e-4
0.503, 1.195e-4, -1.521e-4
0.500, 1.221e-4, -1.514e-4
0.497, 1.251e-4, -1.506e-4
0.494, 1.277e-4, -1.498e-4
0.491, 1.299e-4, -1.491e-4
0.488, 1.332e-4, -1.483e-4
0.485, 1.360e-4, -1.475e-4
0.482, 1.384e-4, -1.466e-4
0.479, 1.419e-4, -1.458e-4
0.476, 1.448e-4, -1.449e-4
0.473, 1.476e-4, -1.440e-4
0.470, 1.505e-4, -1.431e-4
0.467, 1.536e-4, -1.422e-4
0.464, 1.565e-4, -1.413e-4
0.461, 1.588e-4, -1.403e-4
0.458, 1.620e-4, -1.393e-4
0.455, 1.646e-4, -1.383e-4
0.452, 1.666e-4, -1.373e-4
0.449, 1.695e-4, -1.363e-4
0.446, 1.717e-4, -1.353e-4
0.443, 1.738e-4, -1.342e-4
0.440, 1.758e-4, -1.332e-4
0.437, 1.781e-4, -1.321e-4
0.434, 1.802e-4, -1.310e-4
0.431, 1.815e-4, -1.300e-4
0.428, 1.838e-4, -1.289e-4
0.425, 1.854e-4, -1.277e-4
0.422, 1.863e-4, -1.266e-4
0.419, 1.881e-4, -1.255e-4
0.416, 1.891e-4, -1.244e-4
0.413, 1.900e-4, -1.232e-4
0.410, 1.908e-4, -1.221e-4
0.407, 1.917e-4, -1.209e-4
0.404, 1.923e-4, -1.198e-4
0.401, 1.921e-4, -1.186e-4
0.398, 1.930e-4, -1.175e-4
0.395, 1.932e-4, -1.163e-4
0.392, 1.926e-4, -1.151e-4
0.389, 1.927e-4, -1.140e-4
0.386, 1.922e-4, -1.128e-4
0.383, 1.911e-4, -1.117e-4
0.380, 1.900e-4, -1.105e-4
0.377, 1.888e-4, -1.094e-4
0.374, 1.873e-4, -1.083e-4
0.371, 1.848e-4, -1.072e-4
0.368, 1.833e-4, -1.061e-4
0.365, 1.809e-4, -1.050e-4
0.362, 1.780e-4, -1.039e-4
0.359, 1.757e-4, -1.029e-4
0.356, 1.728e-4, -1.018e-4
0.353, 1.697e-4, -1.008e-4
0.350, 1.665e-4, -9.982e-5
0.347, 1.635e-4, -9.884e-5
0.344, 1.601e-4, -9.788e-5
0.341, 1.562e-4, -9.694e-5
0.338, 1.530e-4, -9.602e-5
0.335, 1.494e-4, -9.513e-5
0.332, 1.453e-4, -9.426e-5
0.329, 1.421e-4, -9.340e-5
0.326, 1.384e-4, -9.257e-5
0.323, 1.346e-4, -9.176e-5
0.320, 1.309e-4, -9.098e-5
0.317, 1.276e-4, -9.021e-5
0.314, 1.240e-4, -8.947e-5
0.311, 1.202e-4, -8.875e-5
0.308, 1.172e-4, -8.805e-5
0.305, 1.138e-4, -8.736e-5
0.302, 1.101e-4, -8.670e-5
0.299, 1.073e-4, -8.606e-5
0.296, 1.039e-4, -8.543e-5
0.293, 1.006e-4, -8.483e-5
0.290, 9.754e-5, -8.425e-5
0.287, 9.468e-5, -8.368e-5
0.284, 9.169e-5, -8.313e-5
0.281, 8.857e-5, -8.260e-5
0.278, 8.624e-5, -8.208e-5
0.275, 8.350e-5, -8.158e-5
0.272, 8.063e-5, -8.109e-5
0.269, 7.864e-5, -8.062e-5
0.266, 7.624e-5, -8.017e-5
0.263, 7.394e-5, -7.972e-5
0.260, 7.199e-5, -7.929e-5
0.257, 7.005e-5, -7.887e-5
0.254, 6.813e-5, -7.846e-5
0.251, 6.601e-5, -7.806e-5
0.248, 6.464e-5, -7.768e-5
0.245, 6.295e-5, -7.730e-5
0.242, 6.102e-5, -7.693e-5
0.239, 5.995e-5, -7.657e-5
0.236, 5.838e-5, -7.622e-5
0.233, 5.694e-5, -7.588e-5
0.230, 5.577e-5, -7.555e-5
0.227, 5.466e-5, -7.522e-5
0.224, 5.337e-5, -7.490e-5
0.221, 5.197e-5, -7.459e-5
0.218, 5.122e-5, -7.428e-5
0.215, 5.003e-5, -7.398e-5
0.212, 4.869e-5, -7.369e-5
0.209, 4.813e-5, -7.340e-5
0.206, 4.689e-5, -7.312e-5
0.203, 4.571e-5, -7.284e-5
0.200, 4.495e-5, -7.257e-5
0.197, 4.408e-5, -7.231e-5
0.194, 4.321e-5, -7.205e-5
0.191, 4.201e-5, -7.180e-5
0.188, 4.142e-5, -7.155e-5
0.185, 4.051e-5, -7.131e-5
0.182, 3.947e-5, -7.107e-5
0.179, 3.904e-5, -7.083e-5
0.176, 3.811e-5, -7.061e-5
0.173, 3.724e-5, -7.038e-5
0.170, 3.669e-5, -7.016e-5
0.167, 3.609e-5, -6.995e-5
0.164, 3.542e-5, -6.973e-5
0.161, 3.458e-5, -6.953e-5
0.158, 3.438e-5, -6.932e-5
0.155, 3.370e-5, -6.912e-5
0.152, 3.287e-5, -6.892e-5
0.149, 3.280e-5, -6.872e-5
0.146, 3.219e-5, -6.853e-5
0.143, 3.166e-5, -6.834e-5
0.140, 3.130e-5, -6.815e-5
0.137, 3.094e-5, -6.797e-5
0.134, 3.045e-5, -6.778e-5
0.131, 2.974e-5, -6.761e-5
0.128, 2.964e-5, -6.743e-5
0.125, 2.916e-5, -6.725e-5
0.122, 2.852e-5, -6.708e-5
0.119, 2.860e-5, -6.691e-5
0.116, 2.802e-5, -6.674e-5
0.113, 2.757e-5, -6.658e-5
0.110, 2.738e-5, -6.641e-5
0.107, 2.710e-5, -6.625e-5
0.104, 2.680e-5, -6.609e-5
0.101, 2.620e-5, -6.593e-5
0.098, 2.632e-5, -6.577e-5
0.095, 2.596e-5, -6.562e-5
0.092, 2.538e-5, -6.547e-5
0.089, 2.561e-5, -6.531e-5
0.086, 2.531e-5, -6.516e-5
0.083, 2.507e-5, -6.501e-5
0.080, 2.502e-5, -6.486e-5
0.077, 2.496e-5, -6.471e-5
0.074, 2.489e-5, -6.456e-5
0.071, 2.456e-5, -6.441e-5
0.068, 2.494e-5, -6.426e-5
0.065, 2.481e-5, -6.411e-5
0.062, 2.453e-5, -6.397e-5
0.059, 2.516e-5, -6.382e-5
0.056, 2.510e-5, -6.367e-5
0.053, 2.510e-5, -6.352e-5
0.050, 2.543e-5, -6.336e-5
0.047, 2.566e-5, -6.321e-5
0.044, 2.583e-5, -6.305e-5
0.041, 2.567e-5, -6.290e-5
0.038, 2.652e-5, -6.274e-5
0.035, 2.664e-5, -6.258e-5
0.032, 2.660e-5, -6.242e-5
0.029, 2.754e-5, -6.226e-5
0.026, 2.787e-5, -6.209e-5
0.023, 2.821e-5, -6.192e-5
0.020, 2.864e-5, -6.175e-5
0.017, 2.948e-5, -6.157e-5
0.014, 3.016e-5, -6.139e-5
0.011, 3.015e-5, -6.121e-5
0.008, 3.177e-5, -6.102e-5
0.005, 3.235e-5, -6.082e-5
0.002, 3.280e-5, -6.063e-5
-0.001, 3.430e-5, -6.042e-5
-0.004, 3.538e-5, -6.021e-5
-0.007, 3.630e-5, -5.999e-5
-0.010, 3.749e-5, -5.977e-5
-0.013, 3.942e-5, -5.953e-5
-0.016, 4.093e-5, -5.928e-5
-0.019, 4.152e-5, -5.904e-5
-0.022, 4.429e-5, -5.877e-5
-0.025, 4.606e-5, -5.849e-5
-0.028, 4.746e-5, -5.821e-5
-0.031, 5.021e-5, -5.791e-5
-0.034, 5.255e-5, -5.759e-5
-0.037, 5.505e-5, -5.726e-5
-0.040, 5.675e-5, -5.692e-5
-0.043, 6.018e-5, -5.656e-5
-0.046, 6.290e-5, -5.618e-5
-0.049, 6.443e-5, -5.580e-5
-0.052, 6.886e-5, -5.538e-5
-0.055, 7.140e-5, -5.495e-5
-0.058, 7.348e-5, -5.451e-5
-0.061, 7.728e-5, -5.405e-5
-0.064, 8.052e-5, -5.357e-5
-0.067, 8.334e-5, -5.307e-5
-0.070, 8.542e-5, -5.255e-5
-0.073, 8.987e-5, -5.201e-5
-0.076, 9.284e-5, -5.146e-5
-0.079, 9.437e-5, -5.089e-5
-0.082, 9.890e-5, -5.030e-5
-0.085, 1.016e-4, -4.969e-5
-0.088, 1.037e-4, -4.907e-5
-0.091, 1.069e-4, -4.842e-5
-0.094, 1.098e-4, -4.777e-5
-0.097, 1.123e-4, -4.709e-5
-0.100, 1.136e-4, -4.641e-5
-0.103, 1.177e-4, -4.570e-5
-0.106, 1.195e-4, -4.499e-5
-0.109, 1.197e-4, -4.427e-5
-0.112, 1.236e-4, -4.353e-5
-0.115, 1.251e-4, -4.278e-5
-0.118, 1.256e-4, -4.202e-5
-0.121, 1.273e-4, -4.126e-5
-0.124, 1.286e-4, -4.049e-5
-0.127, 1.287e-4, -3.972e-5
-0.130, 1.277e-4, -3.895e-5
-0.133, 1.292e-4, -3.818e-5
-0.136, 1.292e-4, -3.740e-5
-0.139, 1.268e-4, -3.664e-5
-0.142, 1.281e-4, -3.587e-5
-0.145, 1.276e-4, -3.510e-5
-0.148, 1.261e-4, -3.435e-5
-0.151, 1.264e-4, -3.359e-5
-0.154, 1.268e-4, -3.283e-5
-0.157, 1.266e-4, -3.207e-5
-0.160, 1.252e-4, -3.132e-5
-0.163, 1.270e-4, -3.056e-5
-0.166, 1.272e-4, -2.979e-5
-0.169, 1.260e-4, -2.904e-5
-0.172, 1.287e-4, -2.827e-5
-0.175, 1.294e-4, -2.749e-5
-0.178, 1.295e-4, -2.671e-5
-0.181, 1.316e-4, -2.592e-5
-0.184, 1.339e-4, -2.512e-5
-0.187, 1.356e-4, -2.431e-5
-0.190, 1.361e-4, -2.349e-5
-0.193, 1.405e-4, -2.265e-5
-0.196, 1.436e-4, -2.178e-5
-0.199, 1.444e-4, -2.092e-5
-0.202, 1.493e-4, -2.002e-5
-0.205, 1.514e-4, -1.911e-5
-0.208, 1.539e-4, -1.819e-5
-0.211, 1.574e-4, -1.725e-5
-0.214, 1.609e-4, -1.628e-5
-0.217, 1.642e-4, -1.530e-5
-0.220, 1.652e-4, -1.430e-5
-0.223, 1.698e-4, -1.329e-5
-0.226, 1.724e-4, -1.225e-5
-0.229, 1.730e-4, -1.121e-5
-0.232, 1.770e-4, -1.015e-5
-0.235, 1.790e-4, -9.076e-6
-0.238, 1.800e-4, -7.996e-6
-0.241, 1.822e-4, -6.903e-6
-0.244, 1.850e-4, -5.793e-6
-0.247, 1.868e-4, -4.673e-6
-0.250, 1.865e-4, -3.554e-6
-0.253, 1.897e-4, -2.416e-6
-0.256, 1.909e-4, -1.271e-6
-0.259, 1.892e-4, -1.356e-7
-0.262, 1.915e-4, 1.013e-6
-0.265, 1.917e-4, 2.163e-6
-0.268, 1.911e-4, 3.310e-6
-0.271, 1.915e-4, 4.459e-6
-0.274, 1.921e-4, 5.612e-6
-0.277, 1.922e-4, 6.765e-6
-0.280, 1.907e-4, 7.909e-6
-0.283, 1.928e-4, 9.066e-6
-0.286, 1.934e-4, 1.023e-5
-0.289, 1.921e-4, 1.138e-5
-0.292, 1.947e-4, 1.255e-5
-0.295, 1.956e-4, 1.372e-5
-0.298, 1.962e-4, 1.490e-5

Segment 5:
-0.299, 1.528e-4, 1.582e-5
-0.296, 8.346e-5, 1.632e-5
-0.293, 4.228e-5, 1.657e-5
-0.290, 1.085e-5, 1.663e-5
-0.287, -8.996e-6, 1.658e-5
-0.284, -2.674e-5, 1.642e-5
-0.281, -4.322e-5, 1.616e-5
-0.278, -5.362e-5, 1.584e-5
-0.275, -6.397e-5, 1.546e-5
-0.272, -7.368e-5, 1.501e-5
-0.269, -8.123e-5, 1.453e-5
-0.266, -8.683e-5, 1.400e-5
-0.263, -9.248e-5, 1.345e-5
-0.260, -9.935e-5, 1.285e-5
-0.257, -1.017e-4, 1.224e-5
-0.254, -1.060e-4, 1.161e-5
-0.251, -1.108e-4, 1.094e-5
-0.248, -1.119e-4, 1.027e-5
-0.245, -1.153e-4, 9.581e-6
-0.242, -1.186e-4, 8.869e-6
-0.239, -1.206e-4, 8.145e-6
-0.236, -1.216e-4, 7.416e-6
-0.233, -1.233e-4, 6.676e-6
-0.230, -1.270e-4, 5.915e-6
-0.227, -1.267e-4, 5.155e-6
-0.224, -1.281e-4, 4.386e-6
-0.221, -1.312e-4, 3.599e-6
-0.218, -1.301e-4, 2.818e-6
-0.215, -1.307e-4, 2.034e-6
-0.212, -1.320e-4, 1.242e-6
-0.209, -1.325e-4, 4.473e-7
-0.206, -1.315e-4, -3.418e-7
-0.203, -1.306e-4, -1.125e-6
-0.200, -1.328e-4, -1.922e-6
-0.197, -1.308e-4, -2.707e-6
-0.194, -1.308e-4, -3.491e-6
-0.191, -1.323e-4, -4.286e-6
-0.188, -1.303e-4, -5.068e-6
-0.185, -1.298e-4, -5.847e-6
-0.182, -1.296e-4, -6.624e-6
-0.179, -1.283e-4, -7.394e-6
-0.176, -1.259e-4, -8.149e-6
-0.173, -1.243e-4, -8.895e-6
-0.170, -1.244e-4, -9.641e-6
-0.167, -1.208e-4, -1.037e-5
-0.164, -1.194e-4, -1.108e-5
-0.161, -1.196e-4, -1.180e-5
-0.158, -1.163e-4, -1.250e-5
-0.155, -1.147e-4, -1.319e-5
-0.152, -1.142e-4, -1.387e-5
-0.149, -1.124e-4, -1.455e-5
-0.146, -1.103e-4, -1.521e-5
-0.143, -1.092e-4, -1.586e-5
-0.140, -1.100e-4, -1.652e-5
-0.137, -1.075e-4, -1.717e-5
-0.134, -1.069e-4, -1.781e-5
-0.131, -1.080e-4, -1.846e-5
-0.128, -1.060e-4, -1.909e-5
-0.125, -1.063e-4, -1.973e-5
-0.122, -1.073e-4, -2.037e-5
-0.119, -1.077e-4, -2.102e-5
-0.116, -1.074e-4, -2.167e-5
-0.113, -1.078e-4, -2.231e-5
-0.110, -1.107e-4, -2.298e-5
-0.107, -1.099e-4, -2.364e-5
-0.104, -1.110e-4, -2.430e-5
-0.101, -1.142e-4, -2.499e-5
-0.098, -1.134e-4, -2.567e-5
-0.095, -1.141e-4, -2.635e-5
-0.092, -1.156e-4, -2.704e-5
-0.089, -1.162e-4, -2.774e-5
-0.086, -1.161e-4, -2.844e-5
-0.083, -1.165e-4, -2.914e-5
-0.080, -1.189e-4, -2.985e-5
-0.077, -1.174e-4, -3.056e-5
-0.074, -1.182e-4, -3.126e-5
-0.071, -1.202e-4, -3.199e-5
-0.068, -1.189e-4, -3.270e-5
-0.065, -1.190e-4, -3.341e-5
-0.062, -1.196e-4, -3.413e-5
-0.059, -1.197e-4, -3.485e-5
-0.056, -1.188e-4, -3.556e-5
-0.053, -1.182e-4, -3.627e-5
-0.050, -1.193e-4, -3.699e-5
-0.047, -1.160e-4, -3.768e-5
-0.044, -1.147e-4, -3.837e-5
-0.041, -1.142e-4, -3.906e-5
-0.038, -1.103e-4, -3.972e-5
-0.035, -1.077e-4, -4.036e-5
-0.032, -1.051e-4, -4.100e-5
-0.029, -1.012e-4, -4.160e-5
-0.026, -9.688e-5, -4.218e-5
-0.023, -9.271e-5, -4.274e-5
-0.020, -8.969e-5, -4.328e-5
-0.017, -8.382e-5, -4.378e-5
-0.014, -7.909e-5, -4.426e-5
-0.011, -7.537e-5, -4.471e-5
-0.008, -6.894e-5, -4.512e-5
-0.005, -6.449e-5, -4.551e-5
-0.002, -6.049e-5, -4.587e-5
0.001, -5.560e-5, -4.621e-5
0.004, -5.167e-5, -4.652e-5
0.007, -4.828e-5, -4.680e-5
0.010, -4.611e-5, -4.708e-5
0.013, -4.251e-5, -4.734e-5
0.016, -4.035e-5, -4.758e-5
0.019, -3.911e-5, -4.781e-5
0.022, -3.626e-5, -4.803e-5
0.025, -3.485e-5, -4.824e-5
0.028, -3.375e-5, -4.844e-5
0.031, -3.188e-5, -4.863e-5
0.034, -3.049e-5, -4.882e-5
0.037, -2.928e-5, -4.899e-5
0.040, -2.864e-5, -4.916e-5
0.043, -2.692e-5, -4.933e-5
0.046, -2.602e-5, -4.948e-5
0.049, -2.570e-5, -4.964e-5
0.052, -2.412e-5, -4.978e-5
0.055, -2.345e-5, -4.992e-5
0.058, -2.302e-5, -5.006e-5
0.061, -2.193e-5, -5.019e-5
0.064, -2.127e-5, -5.032e-5
0.067, -2.071e-5, -5.044e-5
0.070, -2.049e-5, -5.057e-5
0.073, -1.952e-5, -5.068e-5
0.076, -1.906e-5, -5.080e-5
0.079, -1.908e-5, -5.091e-5
0.082, -1.801e-5, -5.102e-5
0.085, -1.786e-5, -5.113e-5
0.088, -1.775e-5, -5.123e-5
0.091, -1.705e-5, -5.134e-5
0.094, -1.678e-5, -5.144e-5
0.097, -1.655e-5, -5.154e-5
0.100, -1.646e-5, -5.163e-5
0.103, -1.591e-5, -5.173e-5
0.106, -1.572e-5, -5.182e-5
0.109, -1.588e-5, -5.192e-5
0.112, -1.518e-5, -5.201e-5
0.115, -1.527e-5, -5.210e-5
0.118, -1.535e-5, -5.219e-5
0.121, -1.486e-5, -5.228e-5
0.124, -1.478e-5, -5.237e-5
0.127, -1.472e-5, -5.246e-5
0.130, -1.480e-5, -5.255e-5
0.133, -1.441e-5, -5.264e-5
0.136, -1.438e-5, -5.272e-5
0.139, -1.465e-5, -5.281e-5
0.142, -1.410e-5, -5.289e-5
0.145, -1.428e-5, -5.298e-5
0.148, -1.436e-5, -5.307e-5
0.151, -1.399e-5, -5.315e-5
0.154, -1.401e-5, -5.323e-5
0.157, -1.388e-5, -5.332e-5
0.160, -1.397e-5, -5.340e-5
0.163, -1.358e-5, -5.348e-5
0.166, -1.358e-5, -5.356e-5
0.169, -1.385e-5, -5.365e-5
0.172, -1.329e-5, -5.373e-5
0.175, -1.338e-5, -5.381e-5
0.178, -1.354e-5, -5.389e-5
0.181, -1.312e-5, -5.397e-5
0.184, -1.304e-5, -5.405e-5
0.187, -1.292e-5, -5.412e-5
0.190, -1.314e-5, -5.420e-5
0.193, -1.274e-5, -5.428e-5
0.196, -1.278e-5, -5.436e-5
0.199, -1.305e-5, -5.443e-5
0.202, -1.252e-5, -5.451e-5
0.205, -1.251e-5, -5.458e-5
0.208, -1.282e-5, -5.466e-5
0.211, -1.250e-5, -5.474e-5
0.214, -1.257e-5, -5.481e-5
0.217, -1.257e-5, -5.489e-5
0.220, -1.276e-5, -5.496e-5
0.223, -1.246e-5, -5.504e-5
0.226, -1.251e-5, -5.511e-5
0.229, -1.289e-5, -5.519e-5
0.232, -1.238e-5, -5.526e-5
0.235, -1.256e-5, -5.534e-5
0.238, -1.278e-5, -5.542e-5
0.241, -1.243e-5, -5.549e-5
0.244, -1.244e-5, -5.557e-5
0.247, -1.244e-5, -5.564e-5
0.250, -1.262e-5, -5.572e-5
0.253, -1.226e-5, -5.579e-5
0.256, -1.240e-5, -5.586e-5
0.259, -1.265e-5, -5.594e-5
0.262, -1.216e-5, -5.601e-5
0.265, -1.235e-5, -5.609e-5
0.268, -1.249e-5, -5.616e-5
0.271, -1.211e-5, -5.623e-5
0.274, -1.217e-5, -5.631e-5
0.277, -1.221e-5, -5.638e-5
0.280, -1.239e-5, -5.646e-5
0.283, -1.211e-5, -5.653e-5
0.286, -1.216e-5, -5.660e-5
0.289, -1.257e-5, -5.668e-5
0.292, -1.206e-5, -5.675e-5
0.295, -1.233e-5, -5.682e-5
0.298, -1.255e-5, -5.690e-5
0.301, -1.233e-5, -5.697e-5
0.304, -1.239e-5, -5.705e-5
0.307, -1.257e-5, -5.712e-5
0.310, -1.276e-5, -5.720e-5
0.313, -1.253e-5, -5.727e-5
0.316, -1.267e-5, -5.735e-5
0.319, -1.311e-5, -5.743e-5
0.322, -1.264e-5, -5.750e-5
0.325, -1.291e-5, -5.758e-5
0.328, -1.314e-5, -5.766e-5
0.331, -1.291e-5, -5.774e-5
0.334, -1.296e-5, -5.782e-5
0.337, -1.308e-5, -5.789e-5
0.340, -1.336e-5, -5.797e-5
0.343, -1.303e-5, -5.805e-5
0.346, -1.322e-5, -5.813e-5
0.349, -1.366e-5, -5.821e-5
0.352, -1.312e-5, -5.829e-5
0.355, -1.343e-5, -5.837e-5
0.358, -1.372e-5, -5.846e-5
0.361, -1.357e-5, -5.854e-5
0.364, -1.363e-5, -5.862e-5
0.367, -1.376e-5, -5.870e-5
0.370, -1.420e-5, -5.879e-5
0.373, -1.391e-5, -5.887e-5
0.376, -1.420e-5, -5.895e-5
0.379, -1.466e-5, -5.904e-5
0.382, -1.430e-5, -5.913e-5
0.385, -1.474e-5, -5.922e-5
0.388, -1.511e-5, -5.931e-5
0.391, -1.506e-5, -5.940e-5
0.394, -1.531e-5, -5.949e-5
0.397, -1.555e-5, -5.958e-5
0.400, -1.610e-5, -5.968e-5
0.403, -1.592e-5, -5.978e-5
0.406, -1.631e-5, -5.987e-5
0.409, -1.699e-5, -5.998e-5
0.412, -1.669e-5, -6.008e-5
0.415, -1.715e-5, -6.018e-5
0.418, -1.757e-5, -6.028e-5
0.421, -1.764e-5, -6.039e-5
0.424, -1.787e-5, -6.050e-5
0.427, -1.818e-5, -6.061e-5
0.430, -1.882e-5, -6.072e-5
0.433, -1.869e-5, -6.083e-5
0.436, -1.912e-5, -6.095e-5
0.439, -1.990e-5, -6.107e-5
0.442, -1.958e-5, -6.118e-5
0.445, -2.018e-5, -6.130e-5
0.448, -2.073e-5, -6.143e-5
0.451, -2.094e-5, -6.155e-5
0.454, -2.130e-5, -6.168e-5
0.457, -2.181e-5, -6.181e-5
0.460, -2.276e-5, -6.195e-5
0.463, -2.268e-5, -6.208e-5
0.466, -2.331e-5, -6.222e-5
0.469, -2.450e-5, -6.237e-5
0.472, -2.443e-5, -6.252e-5
0.475, -2.532e-5, -6.267e-5
0.478, -2.609e-5, -6.283e-5
0.481, -2.679e-5, -6.299e-5
0.484, -2.747e-5, -6.315e-5
0.487, -2.820e-5, -6.332e-5
0.490, -2.970e-5, -6.350e-5
0.493, -2.996e-5, -6.368e-5
0.496, -3.116e-5, -6.387e-5
0.499, -3.275e-5, -6.406e-5
0.502, -3.313e-5, -6.426e-5
0.505, -3.450e-5, -6.447e-5
0.508, -3.601e-5, -6.468e-5
0.511, -3.732e-5, -6.491e-5
0.514, -3.846e-5, -6.514e-5
0.517, -4.000e-5, -6.538e-5
0.520, -4.216e-5, -6.563e-5
0.523, -4.297e-5, -6.589e-5
0.526, -4.467e-5, -6.616e-5
0.529, -4.699e-5, -6.644e-5
0.532, -4.805e-5, -6.673e-5
0.535, -4.995e-5, -6.703e-5
0.538, -5.181e-5, -6.734e-5
0.541, -5.381e-5, -6.766e-5
0.544, -5.532e-5, -6.799e-5
0.547, -5.710e-5, -6.834e-5
0.550, -5.959e-5, -6.869e-5
0.553, -6.050e-5, -6.906e-5
0.556, -6.240e-5, -6.943e-5
0.559, -6.470e-5, -6.982e-5
0.562, -6.567e-5, -7.021e-5
0.565, -6.757e-5, -7.062e-5
0.568, -6.920e-5, -7.103e-5
0.571, -7.104e-5, -7.146e-5
0.574, -7.209e-5, -7.189e-5
0.577, -7.359e-5, -7.233e-5
0.580, -7.593e-5, -7.279e-5
0.583, -7.629e-5, -7.325e-5
0.586, -7.765e-5, -7.371e-5
0.589, -7.941e-5, -7.419e-5
0.592, -7.987e-5, -7.467e-5
0.595, -8.105e-5, -7.516e-5
0.598, -8.220e-5, -7.565e-5
0.601, -8.342e-5, -7.615e-5
0.604, -8.395e-5, -7.665e-5
0.607, -8.488e-5, -7.716e-5
0.610, -8.668e-5, -7.768e-5
0.613, -8.655e-5, -7.820e-5
0.616, -8.720e-5, -7.873e-5
0.619, -8.896e-5, -7.926e-5
0.622, -8.921e-5, -7.979e-5
0.625, -9.017e-5, -8.034e-5
0.628, -9.117e-5, -8.088e-5
0.631, -9.237e-5, -8.144e-5
0.634, -9.266e-5, -8.199e-5
0.637, -9.350e-5, -8.255e-5
0.640, -9.525e-5, -8.312e-5
0.643, -9.523e-5, -8.370e-5
0.646, -9.620e-5, -8.427e-5
0.649, -9.768e-5, -8.486e-5
0.652, -9.801e-5, -8.545e-5
0.655, -9.902e-5, -8.604e-5
0.658, -9.992e-5, -8.664e-5
0.661, -1.012e-4, -8.725e-5
0.664, -1.015e-4, -8.786e-5
0.667, -1.025e-4, -8.847e-5
0.670, -1.039e-4, -8.910e-5
0.673, -1.034e-4, -8.972e-5
0.676, -1.042e-4, -9.034e-5
0.679, -1.053e-4, -9.097e-5
0.682, -1.050e-4, -9.160e-5
0.685, -1.054e-4, -9.224e-5
0.688, -1.059e-4, -9.287e-5
0.691, -1.064e-4, -9.351e-5
0.694, -1.061e-4, -9.415e-5
0.697, -1.063e-4, -9.478e-5
0.700, -1.074e-4, -9.543e-5
0.703, -1.068e-4, -9.607e-5
0.706, -1.072e-4, -9.671e-5
0.709, -1.081e-4, -9.736e-5
0.712, -1.076e-4, -9.801e-5
0.715, -1.080e-4, -9.865e-5
0.718, -1.084e-4, -9.930e-5
0.721, -1.089e-4, -9.996e-5
0.724, -1.086e-4, -1.006e-4
0.727, -1.088e-4, -1.013e-4
0.730, -1.100e-4, -1.019e-4
0.733, -1.093e-4, -1.026e-4
0.736, -1.099e-4, -1.032e-4
0.739, -1.107e-4, -1.039e-4
0.742, -1.105e-4, -1.046e-4
0.745, -1.109e-4, -1.052e-4
0.748, -1.114e-4, -1.059e-4
0.751, -1.122e-4, -1.066e-4
0.754, -1.121e-4, -1.072e-4
0.757, -1.121e-4, -1.079e-4
0.760, -1.131e-4, -1.086e-4
0.763, -1.125e-4, -1.093e-4
0.766, -1.127e-4, -1.099e-4
0.769, -1.135e-4, -1.106e-4
0.772, -1.130e-4, -1.113e-4
0.775, -1.130e-4, -1.120e-4
0.778, -1.132e-4, -1.127e-4
0.781, -1.135e-4, -1.133e-4
0.784, -1.130e-4, -1.140e-4
0.787, -1.130e-4, -1.147e-4
0.790, -1.139e-4, -1.154e-4
0.793, -1.132e-4, -1.161e-4
0.796, -1.134e-4, -1.167e-4
0.799, -1.140e-4, -1.174e-4
0.802, -1.137e-4, -1.181e-4
0.805, -1.139e-4, -1.188e-4
0.808, -1.141e-4, -1.195e-4
0.811, -1.147e-4, -1.202e-4
0.814, -1.144e-4, -1.209e-4
0.817, -1.147e-4, -1.215e-4
0.820, -1.155e-4, -1.222e-4
0.823, -1.152e-4, -1.229e-4
0.826, -1.158e-4, -1.236e-4
0.829, -1.167e-4, -1.243e-4
0.832, -1.167e-4, -1.250e-4
0.835, -1.171e-4, -1.257e-4
0.838, -1.177e-4, -1.264e-4
0.841, -1.183e-4, -1.271e-4
0.844, -1.182e-4, -1.278e-4
0.847, -1.185e-4, -1.286e-4
0.850, -1.194e-4, -1.293e-4
0.853, -1.190e-4, -1.300e-4
0.856, -1.194e-4, -1.307e-4
0.859, -1.201e-4, -1.314e-4
0.862, -1.199e-4, -1.321e-4
0.865, -1.201e-4, -1.329e-4
0.868, -1.204e-4, -1.336e-4
0.871, -1.210e-4, -1.343e-4
0.874, -1.208e-4, -1.350e-4
0.877, -1.212e-4, -1.358e-4
0.880, -1.221e-4, -1.365e-4
0.883, -1.218e-4, -1.372e-4
0.886, -1.223e-4, -1.380e-4
0.889, -1.232e-4, -1.387e-4
0.892, -1.231e-4, -1.394e-4
0.895, -1.235e-4, -1.402e-4
0.898, -1.241e-4, -1.409e-4
0.901, -1.249e-4, -1.417e-4
0.904, -1.250e-4, -1.424e-4
0.907, -1.255e-4, -1.432e-4
0.910, -1.269e-4, -1.439e-4
0.913, -1.269e-4, -1.447e-4
0.916, -1.277e-4, -1.455e-4
0.919, -1.287e-4, -1.462e-4
0.922, -1.292e-4, -1.470e-4
0.925, -1.297e-4, -1.478e-4
0.928, -1.302e-4, -1.486e-4
0.931, -1.311e-4, -1.494e-4
0.934, -1.311e-4, -1.501e-4
0.937, -1.316e-4, -1.509e-4
0.940, -1.326e-4, -1.517e-4
0.943, -1.324e-4, -1.525e-4
0.946, -1.329e-4, -1.533e-4
0.949, -1.337e-4, -1.541e-4
0.952, -1.336e-4, -1.549e-4
0.955, -1.339e-4, -1.557e-4
0.958, -1.343e-4, -1.565e-4
0.961, -1.350e-4, -1.573e-4
0.964, -1.350e-4, -1.582e-4
0.967, -1.354e-4, -1.590e-4
0.970, -1.364e-4, -1.598e-4
0.973, -1.362e-4, -1.606e-4
0.976, -1.367e-4, -1.614e-4
0.979, -1.374e-4, -1.622e-4
0.982, -1.375e-4, -1.631e-4
0.985, -1.380e-4, -1.639e-4
0.988, -1.384e-4, -1.647e-4
0.991, -1.392e-4, -1.656e-4
0.994, -1.394e-4, -1.664e-4
0.997, -1.399e-4, -1.672e-4
1.000, -1.411e-4, -1.681e-4
1.003, -1.410e-4, -1.689e-4
1.006, -1.418e-4, -1.698e-4
1.009, -1.427e-4, -1.706e-4
1.012, -1.428e-4, -1.715e-4
1.015, -1.432e-4, -1.724e-4
1.018, -1.437e-4, -1.732e-4
1.021, -1.443e-4, -1.741e-4
1.024, -1.439e-4, -1.749e-4
1.027, -1.443e-4, -1.758e-4
1.030, -1.452e-4, -1.767e-4
1.033, -1.449e-4, -1.776e-4
1.036, -1.453e-4, -1.784e-4
1.039, -1.459e-4, -1.793e-4
1.042, -1.457e-4, -1.802e-4
1.045, -1.460e-4, -1.811e-4
1.048, -1.462e-4, -1.819e-4
1.051, -1.468e-4, -1.828e-4
1.054, -1.467e-4, -1.837e-4
1.057, -1.470e-4, -1.846e-4
1.060, -1.479e-4, -1.855e-4
1.063, -1.475e-4, -1.863e-4
1.066, -1.480e-4, -1.872e-4
1.069, -1.487e-4, -1.881e-4
1.072, -1.487e-4, -1.890e-4
1.075, -1.492e-4, -1.899e-4
1.078, -1.496e-4, -1.908e-4
1.081, -1.504e-4, -1.917e-4
1.084, -1.504e-4, -1.926e-4
1.087, -1.510e-4, -1.935e-4
1.090, -1.520e-4, -1.944e-4
1.093, -1.520e-4, -1.953e-4
1.096, -1.526e-4, -1.963e-4
1.099, -1.522e-4, -1.972e-4

Segment 6:
1.098, -1.287e-4, -1.979e-4
1.095, -1.131e-4, -1.986e-4
1.092, -1.008e-4, -1.992e-4
1.089, -9.051e-5, -1.998e-4
1.086, -8.097e-5, -2.003e-4
1.083, -7.302e-5, -2.007e-4
1.080, -6.643e-5, -2.011e-4
1.077, -5.949e-5, -2.015e-4
1.074, -5.402e-5, -2.018e-4
1.071, -4.942e-5, -2.021e-4
1.068, -4.449e-5, -2.023e-4
1.065, -4.058e-5, -2.026e-4
1.062, -3.700e-5, -2.028e-4
1.059, -3.388e-5, -2.030e-4
1.056, -3.058e-5, -2.032e-4
1.053, -2.787e-5, -2.034e-4
1.050, -2.590e-5, -2.035e-4
1.047, -2.296e-5, -2.037e-4
1.044, -2.120e-5, -2.038e-4
1.041, -1.959e-5, -2.039e-4
1.038, -1.737e-5, -2.040e-4
1.035, -1.586e-5, -2.041e-4
1.032, -1.447e-5, -2.042e-4
1.029, -1.332e-5, -2.043e-4
1.026, -1.174e-5, -2.043e-4
1.023, -1.075e-5, -2.044e-4
1.020, -9.958e-6, -2.045e-4
1.017, -8.192e-6, -2.045e-4
1.014, -7.444e-6, -2.046e-4
1.011, -6.780e-6, -2.046e-4
1.008, -5.437e-6, -2.046e-4
1.005, -4.655e-6, -2.047e-4
1.002, -3.932e-6, -2.047e-4
0.999, -3.334e-6, -2.047e-4
0.996, -2.268e-6, -2.047e-4
0.993, -1.605e-6, -2.047e-4
0.990, -1.433e-6, -2.047e-4
0.987, -1.396e-7, -2.047e-4
0.984, 1.907e-7, -2.047e-4
0.981, 4.088e-7, -2.047e-4
0.978, 1.433e-6, -2.047e-4
0.975, 1.904e-6, -2.047e-4
0.972, 2.303e-6, -2.047e-4
0.969, 2.547e-6, -2.047e-4
0.966, 3.256e-6, -2.047e-4
0.963, 3.656e-6, -2.046e-4
0.960, 3.489e-6, -2.046e-4
0.957, 4.518e-6, -2.046e-4
0.954, 4.557e-6, -2.046e-4
0.951, 4.651e-6, -2.045e-4
0.948, 5.416e-6, -2.045e-4
0.945, 5.590e-6, -2.045e-4
0.942, 5.906e-6, -2.044e-4
0.939, 5.979e-6, -2.044e-4
0.936, 6.645e-6, -2.044e-4
0.933, 6.889e-6, -2.043e-4
0.930, 6.655e-6, -2.043e-4
0.927, 7.800e-6, -2.042e-4
0.924, 7.778e-6, -2.042e-4
0.921, 7.946e-6, -2.041e-4
0.918, 8.558e-6, -2.041e-4
0.915, 8.793e-6, -2.040e-4
0.912, 9.035e-6, -2.040e-4
0.909, 9.094e-6, -2.039e-4
0.906, 9.728e-6, -2.039e-4
0.903, 1.005e-5, -2.038e-4
0.900, 9.791e-6, -2.037e-4
0.897, 1.081e-5, -2.037e-4
0.894, 1.077e-5, -2.036e-4
0.891, 1.073e-5, -2.035e-4
0.888, 1.142e-5, -2.035e-4
0.885, 1.158e-5, -2.034e-4
0.882, 1.179e-5, -2.033e-4
0.879, 1.185e-5, -2.033e-4
0.876, 1.238e-5, -2.032e-4
0.873, 1.255e-5, -2.031e-4
0.870, 1.228e-5, -2.030e-4
0.867, 1.318e-5, -2.030e-4
0.864, 1.302e-5, -2.029e-4
0.861, 1.296e-5, -2.028e-4
0.858, 1.357e-5, -2.027e-4
0.855, 1.380e-5, -2.026e-4
0.852, 1.402e-5, -2.026e-4
0.849, 1.388e-5, -2.025e-4
0.846, 1.461e-5, -2.024e-4
0.843, 1.475e-5, -2.023e-4
0.840, 1.455e-5, -2.022e-4
0.837, 1.550e-5, -2.021e-4
0.834, 1.549e-5, -2.020e-4
0.831, 1.553e-5, -2.019e-4
0.828, 1.624e-5, -2.018e-4
0.825, 1.642e-5, -2.017e-4
0.822, 1.677e-5, -2.016e-4
0.819, 1.664e-5, -2.015e-4
0.816, 1.754e-5, -2.014e-4
0.813, 1.777e-5, -2.013e-4
0.810, 1.752e-5, -2.012e-4
0.807, 1.859e-5, -2.011e-4
0.804, 1.858e-5, -2.010e-4
0.801, 1.861e-5, -2.009e-4
0.798, 1.927e-5, -2.008e-4
0.795, 1.955e-5, -2.007e-4
0.792, 1.976e-5, -2.005e-4
0.789, 1.973e-5, -2.004e-4
0.786, 2.047e-5, -2.003e-4
0.783, 2.068e-5, -2.002e-4
0.780, 2.045e-5, -2.000e-4
0.777, 2.141e-5, -1.999e-4
0.774, 2.135e-5, -1.998e-4
0.771, 2.144e-5, -1.997e-4
0.768, 2.217e-5, -1.995e-4
0.765, 2.246e-5, -1.994e-4
0.762, 2.278e-5, -1.993e-4
0.759, 2.274e-5, -1.991e-4
0.756, 2.372e-5, -1.990e-4
0.753, 2.400e-5, -1.988e-4
0.750, 2.384e-5, -1.987e-4
0.747, 2.498e-5, -1.985e-4
0.744, 2.517e-5, -1.984e-4
0.741, 2.527e-5, -1.982e-4
0.738, 2.611e-5, -1.981e-4
0.735, 2.660e-5, -1.979e-4
0.732, 2.718e-5, -1.978e-4
0.729, 2.724e-5, -1.976e-4
0.726, 2.816e-5, -1.974e-4
0.723, 2.864e-5, -1.973e-4
0.720, 2.858e-5, -1.971e-4
0.717, 2.985e-5, -1.969e-4
0.714, 3.006e-5, -1.967e-4
0.711, 3.027e-5, -1.965e-4
0.708, 3.117e-5, -1.964e-4
0.705, 3.167e-5, -1.962e-4
0.702, 3.211e-5, -1.960e-4
0.699, 3.220e-5, -1.958e-4
0.696, 3.328e-5, -1.956e-4
0.693, 3.368e-5, -1.954e-4
0.690, 3.356e-5, -1.952e-4
0.687, 3.487e-5, -1.950e-4
0.684, 3.518e-5, -1.948e-4
0.681, 3.553e-5, -1.945e-4
0.678, 3.633e-5, -1.943e-4
0.675, 3.703e-5, -1.941e-4
0.672, 3.773e-5, -1.939e-4
0.669, 3.794e-5, -1.936e-4
0.666, 3.937e-5, -1.934e-4
0.663, 3.997e-5, -1.932e-4
0.660, 4.020e-5, -1.929e-4
0.657, 4.167e-5, -1.927e-4
0.654, 4.220e-5, -1.924e-4
0.651, 4.281e-5, -1.922e-4
0.648, 4.402e-5, -1.919e-4
0.645, 4.502e-5, -1.916e-4
0.642, 4.602e-5, -1.914e-4
0.639, 4.642e-5, -1.911e-4
0.636, 4.795e-5, -1.908e-4
0.633, 4.891e-5, -1.905e-4
0.630, 4.924e-5, -1.902e-4
0.627, 5.093e-5, -1.899e-4
0.624, 5.179e-5, -1.896e-4
0.621, 5.255e-5, -1.893e-4
0.618, 5.374e-5, -1.890e-4
0.615, 5.475e-5, -1.886e-4
0.612, 5.590e-5, -1.883e-4
0.609, 5.655e-5, -1.879e-4
0.606, 5.815e-5, -1.876e-4
0.603, 5.918e-5, -1.872e-4
0.600, 5.983e-5, -1.869e-4
0.597, 6.172e-5, -1.865e-4
0.594, 6.277e-5, -1.861e-4
0.591, 6.395e-5, -1.858e-4
0.588, 6.527e-5, -1.854e-4
0.585, 6.691e-5, -1.850e-4
0.582, 6.833e-5, -1.846e-4
0.579, 6.929e-5, -1.841e-4
0.576, 7.147e-5, -1.837e-4
0.573, 7.303e-5, -1.833e-4
0.570, 7.407e-5, -1.828e-4
0.567, 7.642e-5, -1.824e-4
0.564, 7.820e-5, -1.819e-4
0.561, 7.995e-5, -1.814e-4
0.558, 8.188e-5, -1.809e-4
0.555, 8.398e-5, -1.804e-4
0.552, 8.619e-5, -1.799e-4
0.549, 8.771e-5, -1.794e-4
0.546, 9.027e-5, -1.788e-4
0.543, 9.236e-5, -1.783e-4
0.540, 9.403e-5, -1.777e-4
0.537, 9.674e-5, -1.771e-4
0.534, 9.878e-5, -1.765e-4
0.531, 1.008e-4, -1.759e-4
0.528, 1.031e-4, -1.753e-4
0.525, 1.056e-4, -1.747e-4
0.522, 1.080e-4, -1.740e-4
0.519, 1.097e-4, -1.734e-4
0.516, 1.126e-4, -1.727e-4
0.513, 1.151e-4, -1.720e-4
0.510, 1.172e-4, -1.713e-4
0.507, 1.202e-4, -1.706e-4
0.504, 1.227e-4, -1.699e-4
0.501, 1.254e-4, -1.691e-4
0.498, 1.280e-4, -1.683e-4
0.495, 1.309e-4, -1.675e-4
0.492, 1.338e-4, -1.667e-4
0.489, 1.360e-4, -1.659e-4
0.486, 1.394e-4, -1.651e-4
0.483, 1.422e-4, -1.642e-4
0.480, 1.445e-4, -1.634e-4
0.477, 1.481e-4, -1.625e-4
0.474, 1.512e-4, -1.616e-4
0.471, 1.542e-4, -1.607e-4
0.468, 1.573e-4, -1.597e-4
0.465, 1.607e-4, -1.587e-4
0.462, 1.638e-4, -1.578e-4
0.459, 1.663e-4, -1.568e-4
0.456, 1.697e-4, -1.557e-4
0.453, 1.723e-4, -1.547e-4
0.450, 1.746e-4, -1.537e-4
0.447, 1.776e-4, -1.526e-4
0.444, 1.800e-4, -1.515e-4
0.441, 1.823e-4, -1.504e-4
0.438, 1.843e-4, -1.493e-4
0.435, 1.866e-4, -1.482e-4
0.432, 1.886e-4, -1.471e-4
0.429, 1.899e-4, -1.459e-4
0.426, 1.922e-4, -1.448e-4
0.423, 1.938e-4, -1.436e-4
0.420, 1.947e-4, -1.424e-4
0.417, 1.964e-4, -1.413e-4
0.414, 1.974e-4, -1.401e-4
0.411, 1.981e-4, -1.389e-4
0.408, 1.985e-4, -1.377e-4
0.405, 1.993e-4, -1.365e-4
0.402, 1.997e-4, -1.353e-4
0.399, 1.991e-4, -1.341e-4
0.396, 1.996e-4, -1.329e-4
0.393, 1.993e-4, -1.317e-4
0.390, 1.985e-4, -1.305e-4
0.387, 1.984e-4, -1.293e-4
0.384, 1.976e-4, -1.282e-4
0.381, 1.966e-4, -1.270e-4
0.378, 1.953e-4, -1.258e-4
0.375, 1.938e-4, -1.246e-4
0.372, 1.921e-4, -1.235e-4
0.369, 1.894e-4, -1.223e-4
0.366, 1.877e-4, -1.212e-4
0.363, 1.849e-4, -1.201e-4
0.360, 1.817e-4, -1.190e-4
0.357, 1.792e-4, -1.179e-4
0.354, 1.760e-4, -1.169e-4
0.351, 1.726e-4, -1.159e-4
0.348, 1.690e-4, -1.148e-4
0.345, 1.656e-4, -1.138e-4
0.342, 1.619e-4, -1.129e-4
0.339, 1.577e-4, -1.119e-4
0.336, 1.543e-4, -1.110e-4
0.333, 1.504e-4, -1.101e-4
0.330, 1.461e-4, -1.092e-4
0.327, 1.426e-4, -1.084e-4
0.324, 1.386e-4, -1.075e-4
0.321, 1.347e-4, -1.067e-4
0.318, 1.307e-4, -1.059e-4
0.315, 1.271e-4, -1.052e-4
0.312, 1.232e-4, -1.044e-4
0.309, 1.192e-4, -1.037e-4
0.306, 1.161e-4, -1.030e-4
0.303, 1.126e-4, -1.024e-4
0.300, 1.089e-4, -1.017e-4
0.297, 1.060e-4, -1.011e-4
0.294, 1.028e-4, -1.005e-4
0.291, 9.949e-5, -9.986e-5
0.288, 9.647e-5, -9.928e-5
0.285, 9.360e-5, -9.872e-5
0.282, 9.069e-5, -9.817e-5
0.279, 8.761e-5, -9.765e-5
0.276, 8.528e-5, -9.713e-5
0.273, 8.262e-5, -9.664e-5
0.270, 7.979e-5, -9.616e-5
0.267, 7.783e-5, -9.569e-5
0.264, 7.541e-5, -9.524e-5
0.261, 7.313e-5, -9.480e-5
0.258, 7.103e-5, -9.437e-5
0.255, 6.919e-5, -9.396e-5
0.252, 6.723e-5, -9.356e-5
0.249, 6.506e-5, -9.317e-5
0.246, 6.376e-5, -9.278e-5
0.243, 6.200e-5, -9.241e-5
0.240, 6.007e-5, -9.205e-5
0.237, 5.902e-5, -9.170e-5
0.234, 5.747e-5, -9.135e-5
0.231, 5.598e-5, -9.102e-5
0.228, 5.478e-5, -9.069e-5
0.225, 5.356e-5, -9.037e-5
0.222, 5.241e-5, -9.005e-5
0.219, 5.104e-5, -8.975e-5
0.216, 5.033e-5, -8.944e-5
0.213, 4.918e-5, -8.915e-5
0.210, 4.791e-5, -8.886e-5
0.207, 4.737e-5, -8.858e-5
0.204, 4.605e-5, -8.830e-5
0.201, 4.509e-5, -8.803e-5
0.198, 4.425e-5, -8.776e-5
0.195, 4.348e-5, -8.750e-5
0.192, 4.254e-5, -8.725e-5
0.189, 4.137e-5, -8.700e-5
0.186, 4.098e-5, -8.675e-5
0.183, 4.003e-5, -8.651e-5
0.180, 3.884e-5, -8.628e-5
0.177, 3.847e-5, -8.605e-5
0.174, 3.748e-5, -8.583e-5
0.171, 3.671e-5, -8.561e-5
0.168, 3.607e-5, -8.539e-5
0.165, 3.542e-5, -8.518e-5
0.162, 3.476e-5, -8.497e-5
0.159, 3.387e-5, -8.476e-5
0.156, 3.366e-5, -8.456e-5
0.153, 3.303e-5, -8.436e-5
0.150, 3.212e-5, -8.417e-5
0.147, 3.209e-5, -8.398e-5
0.144, 3.143e-5, -8.379e-5
0.141, 3.082e-5, -8.361e-5
0.138, 3.046e-5, -8.342e-5
0.135, 3.013e-5, -8.324e-5
0.132, 2.971e-5, -8.306e-5
0.129, 2.903e-5, -8.289e-5
0.126, 2.905e-5, -8.272e-5
0.123, 2.854e-5, -8.254e-5
0.120, 2.789e-5, -8.238e-5
0.117, 2.799e-5, -8.221e-5
0.114, 2.749e-5, -8.204e-5
0.111, 2.708e-5, -8.188e-5
0.108, 2.680e-5, -8.172e-5
0.105, 2.662e-5, -8.156e-5
0.102, 2.637e-5, -8.140e-5
0.099, 2.569e-5, -8.125e-5
0.096, 2.585e-5, -8.109e-5
0.093, 2.542e-5, -8.094e-5
0.090, 2.488e-5, -8.079e-5
0.087, 2.519e-5, -8.064e-5
0.084, 2.484e-5, -8.049e-5
0.081, 2.456e-5, -8.034e-5
0.078, 2.448e-5, -8.020e-5
0.075, 2.453e-5, -8.005e-5
0.072, 2.441e-5, -7.990e-5
0.069, 2.398e-5, -7.976e-5
0.066, 2.446e-5, -7.961e-5
0.063, 2.432e-5, -7.947e-5
0.060, 2.400e-5, -7.932e-5
0.057, 2.464e-5, -7.917e-5
0.054, 2.464e-5, -7.903e-5
0.051, 2.482e-5, -7.888e-5
0.048, 2.497e-5, -7.873e-5
0.045, 2.537e-5, -7.858e-5
0.042, 2.568e-5, -7.842e-5
0.039, 2.547e-5, -7.827e-5
0.036, 2.642e-5, -7.811e-5
0.033, 2.657e-5, -7.795e-5
0.030, 2.657e-5, -7.779e-5
0.027, 2.768e-5, -7.763e-5
0.024, 2.795e-5, -7.746e-5
0.021, 2.838e-5, -7.729e-5
0.018, 2.887e-5, -7.711e-5
0.015, 2.990e-5, -7.694e-5
0.012, 3.053e-5, -7.675e-5
0.009, 3.053e-5, -7.657e-5
0.006, 3.218e-5, -7.638e-5
0.003, 3.289e-5, -7.618e-5
-0.000, 3.320e-5, -7.598e-5
-0.003, 3.489e-5, -7.577e-5
-0.006, 3.600e-5, -7.555e-5
-0.009, 3.722e-5, -7.533e-5
-0.012, 3.829e-5, -7.510e-5
-0.015, 4.029e-5, -7.486e-5
-0.018, 4.185e-5, -7.461e-5
-0.021, 4.263e-5, -7.435e-5
-0.024, 4.551e-5, -7.408e-5
-0.027, 4.715e-5, -7.380e-5
-0.030, 4.873e-5, -7.350e-5
-0.033, 5.173e-5, -7.319e-5
-0.036, 5.435e-5, -7.287e-5
-0.039, 5.685e-5, -7.253e-5
-0.042, 5.893e-5, -7.217e-5
-0.045, 6.262e-5, -7.180e-5
-0.048, 6.565e-5, -7.140e-5
-0.051, 6.745e-5, -7.100e-5
-0.054, 7.213e-5, -7.057e-5
-0.057, 7.474e-5, -7.012e-5
-0.060, 7.719e-5, -6.965e-5
-0.063, 8.098e-5, -6.917e-5
-0.066, 8.438e-5, -6.866e-5
-0.069, 8.763e-5, -6.814e-5
-0.072, 8.977e-5, -6.760e-5
-0.075, 9.418e-5, -6.703e-5
-0.078, 9.719e-5, -6.645e-5
-0.081, 9.877e-5, -6.586e-5
-0.084, 1.031e-4, -6.524e-5
-0.087, 1.060e-4, -6.460e-5
-0.090, 1.080e-4, -6.395e-5
-0.093, 1.112e-4, -6.329e-5
-0.096, 1.142e-4, -6.260e-5
-0.099, 1.166e-4, -6.190e-5
-0.102, 1.177e-4, -6.120e-5
-0.105, 1.213e-4, -6.047e-5
-0.108, 1.232e-4, -5.973e-5
-0.111, 1.229e-4, -5.899e-5
-0.114, 1.265e-4, -5.823e-5
-0.117, 1.276e-4, -5.747e-5
-0.120, 1.282e-4, -5.670e-5
-0.123, 1.295e-4, -5.592e-5
-0.126, 1.307e-4, -5.514e-5
-0.129, 1.310e-4, -5.435e-5
-0.132, 1.297e-4, -5.357e-5
-0.135, 1.311e-4, -5.279e-5
-0.138, 1.307e-4, -5.200e-5
-0.141, 1.285e-4, -5.123e-5
-0.144, 1.298e-4, -5.045e-5
-0.147, 1.290e-4, -4.968e-5
-0.150, 1.277e-4, -4.891e-5
-0.153, 1.277e-4, -4.815e-5
-0.156, 1.280e-4, -4.738e-5
-0.159, 1.276e-4, -4.661e-5
-0.162, 1.260e-4, -4.586e-5
-0.165, 1.279e-4, -4.509e-5
-0.168, 1.284e-4, -4.432e-5
-0.171, 1.271e-4, -4.356e-5
-0.174, 1.298e-4, -4.278e-5
-0.177, 1.308e-4, -4.199e-5
-0.180, 1.311e-4, -4.121e-5
-0.183, 1.331e-4, -4.041e-5
-0.186, 1.354e-4, -3.959e-5
-0.189, 1.375e-4, -3.877e-5
-0.192, 1.384e-4, -3.794e-5
-0.195, 1.425e-4, -3.708e-5
-0.198, 1.453e-4, -3.621e-5
-0.201, 1.465e-4, -3.533e-5
-0.204, 1.513e-4, -3.442e-5
-0.207, 1.544e-4, -3.350e-5
-0.210, 1.575e-4, -3.255e-5
-0.213, 1.609e-4, -3.159e-5
-0.216, 1.651e-4, -3.060e-5
-0.219, 1.683e-4, -2.959e-5
-0.222, 1.693e-4, -2.857e-5
-0.225, 1.742e-4, -2.753e-5
-0.228, 1.769e-4, -2.646e-5
-0.231, 1.773e-4, -2.540e-5
-0.234, 1.816e-4, -2.431e-5
-0.237, 1.837e-4, -2.321e-5
-0.240, 1.850e-4, -2.210e-5
-0.243, 1.864e-4, -2.098e-5
-0.246, 1.890e-4, -1.985e-5
-0.249, 1.906e-4, -1.870e-5
-0.252, 1.898e-4, -1.756e-5
-0.255, 1.930e-4, -1.641e-5
-0.258, 1.942e-4, -1.524e-5
-0.261, 1.925e-4, -1.409e-5
-0.264, 1.943e-4, -1.292e-5
-0.267, 1.939e-4, -1.176e-5
-0.270, 1.928e-4, -1.060e-5
-0.273, 1.923e-4, -9.446e-6
-0.276, 1.929e-4, -8.289e-6
-0.279, 1.927e-4, -7.133e-6
-0.282, 1.900e-4, -5.993e-6
-0.285, 1.919e-4, -4.841e-6
-0.288, 1.924e-4, -3.687e-6
-0.291, 1.910e-4, -2.541e-6
-0.294, 1.937e-4, -1.379e-6
-0.297, 1.956e-4, -2.054e-7
