Oct. 19, 2023   13:40:02
Cyclic Voltammetry
File: c:\users\pku\desktop\zzxµç»¯Ñ§\fast.txt
Data Source:  Experiment
Instrument Model:  CHI600B
Header: 
Note: 

Init E (V) = 0
High E (V) = 1.1
Low E (V) = -0.3
Init P/N = P
Scan Rate (V/s) = 0.1
Segment = 6
Sample Interval (V) = 0.005
Quiet Time (sec) = 2
Sensitivity (A/V) = 5e-5

Segment 1:
Segment 2:
Ep = -0.235V
ip = 3.297e-5A
Ah = 2.591e-5C

Segment 3:

Segment 4:
Ep = -0.075V
ip = 5.719e-5A
Ah = 2.194e-5C

Segment 5:
Ep = 1.090V
ip = -4.731e-7A
Ah = -2.051e-7C

Segment 6:
Ep = -0.120V
ip = 3.445e-6A
Ah = 3.164e-6C

Potential/V, Current/A, Charge/C

Segment 1:
0.005, 2.800e-4, 1.400e-5
0.010, 2.772e-4, 2.786e-5
0.015, 2.765e-4, 4.168e-5
0.020, 2.741e-4, 5.539e-5
0.025, 2.683e-4, 6.880e-5
0.030, 2.654e-4, 8.207e-5
0.035, 2.619e-4, 9.517e-5
0.040, 2.552e-4, 1.079e-4
0.045, 2.520e-4, 1.205e-4
0.050, 2.497e-4, 1.330e-4
0.055, 2.466e-4, 1.453e-4
0.060, 2.482e-4, 1.578e-4
0.065, 2.485e-4, 1.702e-4
0.070, 2.478e-4, 1.826e-4
0.075, 2.443e-4, 1.948e-4
0.080, 2.454e-4, 2.071e-4
0.085, 2.473e-4, 2.194e-4
0.090, 2.449e-4, 2.317e-4
0.095, 2.446e-4, 2.439e-4
0.100, 2.448e-4, 2.561e-4
0.105, 2.425e-4, 2.683e-4
0.110, 2.380e-4, 2.802e-4
0.115, 2.375e-4, 2.920e-4
0.120, 2.382e-4, 3.039e-4
0.125, 2.361e-4, 3.157e-4
0.130, 2.363e-4, 3.276e-4
0.135, 2.358e-4, 3.393e-4
0.140, 2.334e-4, 3.510e-4
0.145, 2.322e-4, 3.626e-4
0.150, 2.316e-4, 3.742e-4
0.155, 2.312e-4, 3.858e-4
0.160, 2.323e-4, 3.974e-4
0.165, 2.358e-4, 4.092e-4
0.170, 2.377e-4, 4.211e-4
0.175, 2.360e-4, 4.329e-4
0.180, 2.343e-4, 4.446e-4
0.185, 2.329e-4, 4.562e-4
0.190, 2.302e-4, 4.677e-4
0.195, 2.266e-4, 4.791e-4
0.200, 2.220e-4, 4.902e-4
0.205, 2.162e-4, 5.010e-4
0.210, 2.122e-4, 5.116e-4
0.215, 2.089e-4, 5.220e-4
0.220, 2.058e-4, 5.323e-4
0.225, 2.001e-4, 5.423e-4
0.230, 1.969e-4, 5.522e-4
0.235, 1.936e-4, 5.618e-4
0.240, 1.893e-4, 5.713e-4
0.245, 1.858e-4, 5.806e-4
0.250, 1.832e-4, 5.898e-4
0.255, 1.805e-4, 5.988e-4
0.260, 1.762e-4, 6.076e-4
0.265, 1.736e-4, 6.163e-4
0.270, 1.715e-4, 6.248e-4
0.275, 1.675e-4, 6.332e-4
0.280, 1.651e-4, 6.415e-4
0.285, 1.628e-4, 6.496e-4
0.290, 1.596e-4, 6.576e-4
0.295, 1.558e-4, 6.654e-4
0.300, 1.527e-4, 6.730e-4
0.305, 1.494e-4, 6.805e-4
0.310, 1.449e-4, 6.877e-4
0.315, 1.414e-4, 6.948e-4
0.320, 1.381e-4, 7.017e-4
0.325, 1.341e-4, 7.084e-4
0.330, 1.305e-4, 7.149e-4
0.335, 1.270e-4, 7.213e-4
0.340, 1.229e-4, 7.274e-4
0.345, 1.186e-4, 7.334e-4
0.350, 1.144e-4, 7.391e-4
0.355, 1.105e-4, 7.446e-4
0.360, 1.063e-4, 7.499e-4
0.365, 1.024e-4, 7.550e-4
0.370, 1.012e-4, 7.601e-4
0.375, 9.779e-5, 7.650e-4
0.380, 9.309e-5, 7.697e-4
0.385, 8.840e-5, 7.741e-4
0.390, 8.402e-5, 7.783e-4
0.395, 7.947e-5, 7.822e-4
0.400, 7.532e-5, 7.860e-4
0.405, 7.171e-5, 7.896e-4
0.410, 6.763e-5, 7.930e-4
0.415, 6.384e-5, 7.962e-4
0.420, 6.037e-5, 7.992e-4
0.425, 5.691e-5, 8.020e-4
0.430, 5.313e-5, 8.047e-4
0.435, 4.977e-5, 8.072e-4
0.440, 4.675e-5, 8.095e-4
0.445, 4.352e-5, 8.117e-4
0.450, 4.037e-5, 8.137e-4
0.455, 3.765e-5, 8.156e-4
0.460, 3.475e-5, 8.173e-4
0.465, 3.191e-5, 8.189e-4
0.470, 2.941e-5, 8.204e-4
0.475, 2.708e-5, 8.218e-4
0.480, 2.445e-5, 8.230e-4
0.485, 2.210e-5, 8.241e-4
0.490, 2.015e-5, 8.251e-4
0.495, 1.790e-5, 8.260e-4
0.500, 1.578e-5, 8.268e-4
0.505, 1.410e-5, 8.275e-4
0.510, 1.220e-5, 8.281e-4
0.515, 1.020e-5, 8.286e-4
0.520, 8.621e-6, 8.290e-4
0.525, 7.108e-6, 8.294e-4
0.530, 5.289e-6, 8.296e-4
0.535, 3.858e-6, 8.298e-4
0.540, 2.746e-6, 8.300e-4
0.545, 1.341e-6, 8.300e-4
0.550, -1.713e-8, 8.300e-4
0.555, -8.893e-7, 8.300e-4
0.560, -1.928e-6, 8.299e-4
0.565, -3.211e-6, 8.297e-4
0.570, -3.989e-6, 8.295e-4
0.575, -4.698e-6, 8.293e-4
0.580, -5.820e-6, 8.290e-4
0.585, -6.631e-6, 8.287e-4
0.590, -7.087e-6, 8.283e-4
0.595, -7.981e-6, 8.279e-4
0.600, -8.920e-6, 8.275e-4
0.605, -9.326e-6, 8.270e-4
0.610, -9.894e-6, 8.265e-4
0.615, -1.075e-5, 8.260e-4
0.620, -1.121e-5, 8.254e-4
0.625, -1.152e-5, 8.249e-4
0.630, -1.236e-5, 8.242e-4
0.635, -1.291e-5, 8.236e-4
0.640, -1.302e-5, 8.229e-4
0.645, -1.367e-5, 8.223e-4
0.650, -1.437e-5, 8.215e-4
0.655, -1.447e-5, 8.208e-4
0.660, -1.482e-5, 8.201e-4
0.665, -1.563e-5, 8.193e-4
0.670, -1.586e-5, 8.185e-4
0.675, -1.598e-5, 8.177e-4
0.680, -1.664e-5, 8.169e-4
0.685, -1.711e-5, 8.160e-4
0.690, -1.708e-5, 8.152e-4
0.695, -1.753e-5, 8.143e-4
0.700, -1.818e-5, 8.134e-4
0.705, -1.818e-5, 8.125e-4
0.710, -1.837e-5, 8.115e-4
0.715, -1.912e-5, 8.106e-4
0.720, -1.931e-5, 8.096e-4
0.725, -1.929e-5, 8.087e-4
0.730, -1.985e-5, 8.077e-4
0.735, -2.031e-5, 8.066e-4
0.740, -2.020e-5, 8.056e-4
0.745, -2.054e-5, 8.046e-4
0.750, -2.118e-5, 8.036e-4
0.755, -2.117e-5, 8.025e-4
0.760, -2.127e-5, 8.014e-4
0.765, -2.193e-5, 8.003e-4
0.770, -2.215e-5, 7.992e-4
0.775, -2.209e-5, 7.981e-4
0.780, -2.259e-5, 7.970e-4
0.785, -2.305e-5, 7.958e-4
0.790, -2.299e-5, 7.947e-4
0.795, -2.327e-5, 7.935e-4
0.800, -2.392e-5, 7.923e-4
0.805, -2.401e-5, 7.911e-4
0.810, -2.411e-5, 7.899e-4
0.815, -2.474e-5, 7.887e-4
0.820, -2.500e-5, 7.874e-4
0.825, -2.498e-5, 7.862e-4
0.830, -2.541e-5, 7.849e-4
0.835, -2.592e-5, 7.836e-4
0.840, -2.591e-5, 7.823e-4
0.845, -2.614e-5, 7.810e-4
0.850, -2.680e-5, 7.797e-4
0.855, -2.690e-5, 7.783e-4
0.860, -2.698e-5, 7.770e-4
0.865, -2.752e-5, 7.756e-4
0.870, -2.789e-5, 7.742e-4
0.875, -2.785e-5, 7.728e-4
0.880, -2.824e-5, 7.714e-4
0.885, -2.877e-5, 7.700e-4
0.890, -2.876e-5, 7.685e-4
0.895, -2.897e-5, 7.671e-4
0.900, -2.955e-5, 7.656e-4
0.905, -2.971e-5, 7.641e-4
0.910, -2.973e-5, 7.626e-4
0.915, -3.025e-5, 7.611e-4
0.920, -3.062e-5, 7.596e-4
0.925, -3.058e-5, 7.581e-4
0.930, -3.090e-5, 7.565e-4
0.935, -3.138e-5, 7.549e-4
0.940, -3.137e-5, 7.534e-4
0.945, -3.151e-5, 7.518e-4
0.950, -3.212e-5, 7.502e-4
0.955, -3.225e-5, 7.486e-4
0.960, -3.221e-5, 7.470e-4
0.965, -3.266e-5, 7.453e-4
0.970, -3.300e-5, 7.437e-4
0.975, -3.291e-5, 7.420e-4
0.980, -3.313e-5, 7.404e-4
0.985, -3.360e-5, 7.387e-4
0.990, -3.357e-5, 7.370e-4
0.995, -3.359e-5, 7.354e-4
1.000, -3.407e-5, 7.337e-4
1.005, -3.418e-5, 7.319e-4
1.010, -3.407e-5, 7.302e-4
1.015, -3.441e-5, 7.285e-4
1.020, -3.475e-5, 7.268e-4
1.025, -3.454e-5, 7.251e-4
1.030, -3.471e-5, 7.233e-4
1.035, -3.515e-5, 7.216e-4
1.040, -3.511e-5, 7.198e-4
1.045, -3.509e-5, 7.181e-4
1.050, -3.553e-5, 7.163e-4
1.055, -3.569e-5, 7.145e-4
1.060, -3.556e-5, 7.127e-4
1.065, -3.586e-5, 7.109e-4
1.070, -3.620e-5, 7.091e-4
1.075, -3.609e-5, 7.073e-4
1.080, -3.620e-5, 7.055e-4
1.085, -3.667e-5, 7.037e-4
1.090, -3.670e-5, 7.018e-4
1.095, -3.667e-5, 7.000e-4

Segment 2:
1.100, -3.269e-5, 6.984e-4
1.095, -2.609e-5, 6.971e-4
1.090, -2.134e-5, 6.960e-4
1.085, -1.803e-5, 6.951e-4
1.080, -1.538e-5, 6.943e-4
1.075, -1.295e-5, 6.937e-4
1.070, -1.116e-5, 6.931e-4
1.065, -9.813e-6, 6.926e-4
1.060, -8.339e-6, 6.922e-4
1.055, -7.163e-6, 6.918e-4
1.050, -6.413e-6, 6.915e-4
1.045, -5.529e-6, 6.912e-4
1.040, -4.664e-6, 6.910e-4
1.035, -4.178e-6, 6.908e-4
1.030, -3.690e-6, 6.906e-4
1.025, -3.057e-6, 6.905e-4
1.020, -2.670e-6, 6.903e-4
1.015, -2.432e-6, 6.902e-4
1.010, -1.923e-6, 6.901e-4
1.005, -1.577e-6, 6.900e-4
1.000, -1.490e-6, 6.900e-4
0.995, -1.147e-6, 6.899e-4
0.990, -7.772e-7, 6.899e-4
0.985, -7.013e-7, 6.898e-4
0.980, -5.681e-7, 6.898e-4
0.975, -1.645e-7, 6.898e-4
0.970, -6.111e-8, 6.898e-4
0.965, -6.544e-8, 6.898e-4
0.960, 2.191e-7, 6.898e-4
0.955, 4.270e-7, 6.898e-4
0.950, 3.590e-7, 6.898e-4
0.945, 5.469e-7, 6.899e-4
0.940, 8.449e-7, 6.899e-4
0.935, 8.335e-7, 6.899e-4
0.930, 8.457e-7, 6.900e-4
0.925, 1.162e-6, 6.901e-4
0.920, 1.225e-6, 6.901e-4
0.915, 1.161e-6, 6.902e-4
0.910, 1.377e-6, 6.902e-4
0.905, 1.583e-6, 6.903e-4
0.900, 1.482e-6, 6.904e-4
0.895, 1.585e-6, 6.905e-4
0.890, 1.878e-6, 6.906e-4
0.885, 1.858e-6, 6.907e-4
0.880, 1.816e-6, 6.907e-4
0.875, 2.117e-6, 6.909e-4
0.870, 2.201e-6, 6.910e-4
0.865, 2.111e-6, 6.911e-4
0.860, 2.290e-6, 6.912e-4
0.855, 2.539e-6, 6.913e-4
0.850, 2.430e-6, 6.914e-4
0.845, 2.502e-6, 6.916e-4
0.840, 2.833e-6, 6.917e-4
0.835, 2.837e-6, 6.918e-4
0.830, 2.766e-6, 6.920e-4
0.825, 3.061e-6, 6.921e-4
0.820, 3.192e-6, 6.923e-4
0.815, 3.099e-6, 6.924e-4
0.810, 3.280e-6, 6.926e-4
0.805, 3.582e-6, 6.928e-4
0.800, 3.499e-6, 6.930e-4
0.795, 3.557e-6, 6.931e-4
0.790, 3.903e-6, 6.933e-4
0.785, 3.972e-6, 6.935e-4
0.780, 3.885e-6, 6.937e-4
0.775, 4.204e-6, 6.939e-4
0.770, 4.413e-6, 6.942e-4
0.765, 4.339e-6, 6.944e-4
0.760, 4.512e-6, 6.946e-4
0.755, 4.877e-6, 6.948e-4
0.750, 4.866e-6, 6.951e-4
0.745, 4.916e-6, 6.953e-4
0.740, 5.302e-6, 6.956e-4
0.735, 5.461e-6, 6.959e-4
0.730, 5.393e-6, 6.961e-4
0.725, 5.746e-6, 6.964e-4
0.720, 6.065e-6, 6.967e-4
0.715, 6.047e-6, 6.970e-4
0.710, 6.223e-6, 6.973e-4
0.705, 6.699e-6, 6.977e-4
0.700, 6.782e-6, 6.980e-4
0.695, 6.851e-6, 6.984e-4
0.690, 7.375e-6, 6.987e-4
0.685, 7.707e-6, 6.991e-4
0.680, 7.690e-6, 6.995e-4
0.675, 8.096e-6, 6.999e-4
0.670, 8.557e-6, 7.003e-4
0.665, 8.659e-6, 7.008e-4
0.660, 8.878e-6, 7.012e-4
0.655, 9.486e-6, 7.017e-4
0.650, 9.728e-6, 7.022e-4
0.645, 9.884e-6, 7.027e-4
0.640, 1.044e-5, 7.032e-4
0.635, 1.095e-5, 7.037e-4
0.630, 1.108e-5, 7.043e-4
0.625, 1.157e-5, 7.049e-4
0.620, 1.226e-5, 7.055e-4
0.615, 1.250e-5, 7.061e-4
0.610, 1.287e-5, 7.068e-4
0.605, 1.368e-5, 7.074e-4
0.600, 1.421e-5, 7.081e-4
0.595, 1.452e-5, 7.089e-4
0.590, 1.530e-5, 7.096e-4
0.585, 1.613e-5, 7.104e-4
0.580, 1.654e-5, 7.113e-4
0.575, 1.721e-5, 7.121e-4
0.570, 1.828e-5, 7.130e-4
0.565, 1.898e-5, 7.140e-4
0.560, 1.957e-5, 7.150e-4
0.555, 2.073e-5, 7.160e-4
0.550, 2.175e-5, 7.171e-4
0.545, 2.244e-5, 7.182e-4
0.540, 2.361e-5, 7.194e-4
0.535, 2.505e-5, 7.207e-4
0.530, 2.598e-5, 7.220e-4
0.525, 2.707e-5, 7.233e-4
0.520, 2.876e-5, 7.247e-4
0.515, 3.019e-5, 7.263e-4
0.510, 3.145e-5, 7.278e-4
0.505, 3.329e-5, 7.295e-4
0.500, 3.526e-5, 7.313e-4
0.495, 3.680e-5, 7.331e-4
0.490, 3.879e-5, 7.350e-4
0.485, 4.143e-5, 7.371e-4
0.480, 4.362e-5, 7.393e-4
0.475, 4.588e-5, 7.416e-4
0.470, 4.903e-5, 7.440e-4
0.465, 5.215e-5, 7.466e-4
0.460, 5.508e-5, 7.494e-4
0.455, 5.871e-5, 7.523e-4
0.450, 6.296e-5, 7.555e-4
0.445, 6.670e-5, 7.588e-4
0.440, 7.089e-5, 7.624e-4
0.435, 7.610e-5, 7.662e-4
0.430, 8.100e-5, 7.702e-4
0.425, 8.586e-5, 7.745e-4
0.420, 9.176e-5, 7.791e-4
0.415, 9.786e-5, 7.840e-4
0.410, 1.035e-4, 7.892e-4
0.405, 1.097e-4, 7.946e-4
0.400, 1.167e-4, 8.005e-4
0.395, 1.230e-4, 8.066e-4
0.390, 1.295e-4, 8.131e-4
0.385, 1.369e-4, 8.199e-4
0.380, 1.439e-4, 8.271e-4
0.375, 1.503e-4, 8.347e-4
0.370, 1.575e-4, 8.425e-4
0.365, 1.647e-4, 8.508e-4
0.360, 1.711e-4, 8.593e-4
0.355, 1.775e-4, 8.682e-4
0.350, 1.846e-4, 8.774e-4
0.345, 1.909e-4, 8.870e-4
0.340, 1.966e-4, 8.968e-4
0.335, 2.028e-4, 9.069e-4
0.330, 2.094e-4, 9.174e-4
0.325, 2.148e-4, 9.281e-4
0.320, 2.198e-4, 9.391e-4
0.315, 2.246e-4, 9.504e-4
0.310, 2.285e-4, 9.618e-4
0.305, 2.320e-4, 9.734e-4
0.300, 2.361e-4, 9.852e-4
0.295, 2.398e-4, 9.972e-4
0.290, 2.429e-4, 1.009e-3
0.285, 2.466e-4, 1.022e-3
0.280, 2.495e-4, 1.034e-3
0.275, 2.524e-4, 1.047e-3
0.270, 2.553e-4, 1.060e-3
0.265, 2.574e-4, 1.072e-3
0.260, 2.586e-4, 1.085e-3
0.255, 2.595e-4, 1.098e-3
0.250, 2.600e-4, 1.111e-3
0.245, 2.601e-4, 1.124e-3
0.240, 2.603e-4, 1.137e-3
0.235, 2.607e-4, 1.150e-3
0.230, 2.621e-4, 1.163e-3
0.225, 2.625e-4, 1.177e-3
0.220, 2.626e-4, 1.190e-3
0.215, 2.625e-4, 1.203e-3
0.210, 2.626e-4, 1.216e-3
0.205, 2.622e-4, 1.229e-3
0.200, 2.620e-4, 1.242e-3
0.195, 2.622e-4, 1.255e-3
0.190, 2.625e-4, 1.268e-3
0.185, 2.635e-4, 1.282e-3
0.180, 2.647e-4, 1.295e-3
0.175, 2.670e-4, 1.308e-3
0.170, 2.697e-4, 1.322e-3
0.165, 2.714e-4, 1.335e-3
0.160, 2.728e-4, 1.349e-3
0.155, 2.749e-4, 1.363e-3
0.150, 2.760e-4, 1.376e-3
0.145, 2.766e-4, 1.390e-3
0.140, 2.783e-4, 1.404e-3
0.135, 2.786e-4, 1.418e-3
0.130, 2.778e-4, 1.432e-3
0.125, 2.774e-4, 1.446e-3
0.120, 2.756e-4, 1.460e-3
0.115, 2.728e-4, 1.473e-3
0.110, 2.727e-4, 1.487e-3
0.105, 2.720e-4, 1.500e-3
0.100, 2.720e-4, 1.514e-3
0.095, 2.730e-4, 1.528e-3
0.090, 2.736e-4, 1.541e-3
0.085, 2.736e-4, 1.555e-3
0.080, 2.714e-4, 1.569e-3
0.075, 2.712e-4, 1.582e-3
0.070, 2.713e-4, 1.596e-3
0.065, 2.707e-4, 1.609e-3
0.060, 2.693e-4, 1.623e-3
0.055, 2.709e-4, 1.636e-3
0.050, 2.731e-4, 1.650e-3
0.045, 2.713e-4, 1.664e-3
0.040, 2.754e-4, 1.677e-3
0.035, 2.804e-4, 1.691e-3
0.030, 2.771e-4, 1.705e-3
0.025, 2.765e-4, 1.719e-3
0.020, 2.775e-4, 1.733e-3
0.015, 2.764e-4, 1.747e-3
0.010, 2.733e-4, 1.760e-3
0.005, 2.771e-4, 1.774e-3
0.000, 2.794e-4, 1.788e-3
-0.005, 2.732e-4, 1.802e-3
-0.010, 2.737e-4, 1.816e-3
-0.015, 2.760e-4, 1.829e-3
-0.020, 2.745e-4, 1.843e-3
-0.025, 2.747e-4, 1.857e-3
-0.030, 2.759e-4, 1.871e-3
-0.035, 2.773e-4, 1.884e-3
-0.040, 2.748e-4, 1.898e-3
-0.045, 2.775e-4, 1.912e-3
-0.050, 2.811e-4, 1.926e-3
-0.055, 2.790e-4, 1.940e-3
-0.060, 2.817e-4, 1.954e-3
-0.065, 2.851e-4, 1.968e-3
-0.070, 2.869e-4, 1.983e-3
-0.075, 2.878e-4, 1.997e-3
-0.080, 2.888e-4, 2.012e-3
-0.085, 2.897e-4, 2.026e-3
-0.090, 2.891e-4, 2.041e-3
-0.095, 2.915e-4, 2.055e-3
-0.100, 2.934e-4, 2.070e-3
-0.105, 2.936e-4, 2.084e-3
-0.110, 2.940e-4, 2.099e-3
-0.115, 2.942e-4, 2.114e-3
-0.120, 2.950e-4, 2.129e-3
-0.125, 2.928e-4, 2.143e-3
-0.130, 2.940e-4, 2.158e-3
-0.135, 2.975e-4, 2.173e-3
-0.140, 2.949e-4, 2.188e-3
-0.145, 2.959e-4, 2.202e-3
-0.150, 2.994e-4, 2.217e-3
-0.155, 3.022e-4, 2.232e-3
-0.160, 3.057e-4, 2.248e-3
-0.165, 3.093e-4, 2.263e-3
-0.170, 3.124e-4, 2.279e-3
-0.175, 3.139e-4, 2.295e-3
-0.180, 3.138e-4, 2.310e-3
-0.185, 3.136e-4, 2.326e-3
-0.190, 3.099e-4, 2.341e-3
-0.195, 3.110e-4, 2.357e-3
-0.200, 3.120e-4, 2.373e-3
-0.205, 3.127e-4, 2.388e-3
-0.210, 3.128e-4, 2.404e-3
-0.215, 3.177e-4, 2.420e-3
-0.220, 3.245e-4, 2.436e-3
-0.225, 3.254e-4, 2.452e-3
-0.230, 3.286e-4, 2.469e-3
-0.235, 3.313e-4, 2.485e-3
-0.240, 3.289e-4, 2.502e-3
-0.245, 3.267e-4, 2.518e-3
-0.250, 3.273e-4, 2.534e-3
-0.255, 3.296e-4, 2.551e-3
-0.260, 3.244e-4, 2.567e-3
-0.265, 3.261e-4, 2.583e-3
-0.270, 3.286e-4, 2.600e-3
-0.275, 3.231e-4, 2.616e-3
-0.280, 3.243e-4, 2.632e-3
-0.285, 3.267e-4, 2.648e-3
-0.290, 3.255e-4, 2.665e-3
-0.295, 3.246e-4, 2.681e-3
-0.300, 3.043e-4, 2.696e-3

Segment 3:
-0.295, 2.879e-4, 2.711e-3
-0.290, 2.826e-4, 2.725e-3
-0.285, 2.833e-4, 2.739e-3
-0.280, 2.852e-4, 2.753e-3
-0.275, 2.800e-4, 2.767e-3
-0.270, 2.782e-4, 2.781e-3
-0.265, 2.776e-4, 2.795e-3
-0.260, 2.766e-4, 2.809e-3
-0.255, 2.743e-4, 2.822e-3
-0.250, 2.745e-4, 2.836e-3
-0.245, 2.751e-4, 2.850e-3
-0.240, 2.724e-4, 2.864e-3
-0.235, 2.721e-4, 2.877e-3
-0.230, 2.721e-4, 2.891e-3
-0.225, 2.855e-4, 2.905e-3
-0.220, 2.953e-4, 2.920e-3
-0.215, 2.862e-4, 2.934e-3
-0.210, 2.750e-4, 2.948e-3
-0.205, 2.648e-4, 2.961e-3
-0.200, 2.615e-4, 2.974e-3
-0.195, 2.622e-4, 2.987e-3
-0.190, 2.540e-4, 3.000e-3
-0.185, 2.505e-4, 3.013e-3
-0.180, 2.496e-4, 3.025e-3
-0.175, 2.466e-4, 3.037e-3
-0.170, 2.457e-4, 3.050e-3
-0.165, 2.469e-4, 3.062e-3
-0.160, 2.487e-4, 3.074e-3
-0.155, 2.480e-4, 3.087e-3
-0.150, 2.523e-4, 3.099e-3
-0.145, 2.546e-4, 3.112e-3
-0.140, 2.534e-4, 3.125e-3
-0.135, 2.552e-4, 3.138e-3
-0.130, 2.567e-4, 3.150e-3
-0.125, 2.570e-4, 3.163e-3
-0.120, 2.566e-4, 3.176e-3
-0.115, 2.588e-4, 3.189e-3
-0.110, 2.630e-4, 3.202e-3
-0.105, 2.619e-4, 3.215e-3
-0.100, 2.652e-4, 3.229e-3
-0.095, 2.681e-4, 3.242e-3
-0.090, 2.667e-4, 3.255e-3
-0.085, 2.672e-4, 3.269e-3
-0.080, 2.690e-4, 3.282e-3
-0.075, 2.707e-4, 3.296e-3
-0.070, 2.690e-4, 3.309e-3
-0.065, 2.688e-4, 3.323e-3
-0.060, 2.691e-4, 3.336e-3
-0.055, 2.625e-4, 3.349e-3
-0.050, 2.614e-4, 3.362e-3
-0.045, 2.623e-4, 3.375e-3
-0.040, 2.601e-4, 3.388e-3
-0.035, 2.610e-4, 3.401e-3
-0.030, 2.636e-4, 3.415e-3
-0.025, 2.650e-4, 3.428e-3
-0.020, 2.618e-4, 3.441e-3
-0.015, 2.623e-4, 3.454e-3
-0.010, 2.624e-4, 3.467e-3
-0.005, 2.561e-4, 3.480e-3
-0.000, 2.555e-4, 3.493e-3
0.005, 2.562e-4, 3.505e-3
0.010, 2.541e-4, 3.518e-3
0.015, 2.543e-4, 3.531e-3
0.020, 2.582e-4, 3.544e-3
0.025, 2.577e-4, 3.557e-3
0.030, 2.544e-4, 3.569e-3
0.035, 2.592e-4, 3.582e-3
0.040, 2.647e-4, 3.596e-3
0.045, 2.633e-4, 3.609e-3
0.050, 2.645e-4, 3.622e-3
0.055, 2.658e-4, 3.635e-3
0.060, 2.644e-4, 3.649e-3
0.065, 2.626e-4, 3.662e-3
0.070, 2.640e-4, 3.675e-3
0.075, 2.621e-4, 3.688e-3
0.080, 2.544e-4, 3.701e-3
0.085, 2.526e-4, 3.713e-3
0.090, 2.506e-4, 3.726e-3
0.095, 2.447e-4, 3.738e-3
0.100, 2.426e-4, 3.750e-3
0.105, 2.424e-4, 3.762e-3
0.110, 2.418e-4, 3.774e-3
0.115, 2.365e-4, 3.786e-3
0.120, 2.350e-4, 3.798e-3
0.125, 2.343e-4, 3.810e-3
0.130, 2.296e-4, 3.821e-3
0.135, 2.291e-4, 3.833e-3
0.140, 2.282e-4, 3.844e-3
0.145, 2.248e-4, 3.855e-3
0.150, 2.257e-4, 3.867e-3
0.155, 2.267e-4, 3.878e-3
0.160, 2.252e-4, 3.889e-3
0.165, 2.240e-4, 3.900e-3
0.170, 2.223e-4, 3.911e-3
0.175, 2.217e-4, 3.923e-3
0.180, 2.195e-4, 3.934e-3
0.185, 2.216e-4, 3.945e-3
0.190, 2.235e-4, 3.956e-3
0.195, 2.226e-4, 3.967e-3
0.200, 2.198e-4, 3.978e-3
0.205, 2.189e-4, 3.989e-3
0.210, 2.173e-4, 4.000e-3
0.215, 2.153e-4, 4.010e-3
0.220, 2.151e-4, 4.021e-3
0.225, 2.149e-4, 4.032e-3
0.230, 2.131e-4, 4.043e-3
0.235, 2.129e-4, 4.053e-3
0.240, 2.123e-4, 4.064e-3
0.245, 2.112e-4, 4.074e-3
0.250, 2.109e-4, 4.085e-3
0.255, 2.130e-4, 4.096e-3
0.260, 2.147e-4, 4.106e-3
0.265, 2.100e-4, 4.117e-3
0.270, 2.079e-4, 4.127e-3
0.275, 2.059e-4, 4.138e-3
0.280, 2.017e-4, 4.148e-3
0.285, 1.982e-4, 4.158e-3
0.290, 1.958e-4, 4.167e-3
0.295, 1.932e-4, 4.177e-3
0.300, 1.890e-4, 4.186e-3
0.305, 1.863e-4, 4.196e-3
0.310, 1.826e-4, 4.205e-3
0.315, 1.772e-4, 4.214e-3
0.320, 1.725e-4, 4.222e-3
0.325, 1.680e-4, 4.231e-3
0.330, 1.629e-4, 4.239e-3
0.335, 1.578e-4, 4.247e-3
0.340, 1.535e-4, 4.255e-3
0.345, 1.501e-4, 4.262e-3
0.350, 1.448e-4, 4.269e-3
0.355, 1.403e-4, 4.276e-3
0.360, 1.364e-4, 4.283e-3
0.365, 1.313e-4, 4.290e-3
0.370, 1.266e-4, 4.296e-3
0.375, 1.221e-4, 4.302e-3
0.380, 1.181e-4, 4.308e-3
0.385, 1.132e-4, 4.314e-3
0.390, 1.090e-4, 4.319e-3
0.395, 1.054e-4, 4.324e-3
0.400, 1.007e-4, 4.329e-3
0.405, 9.652e-5, 4.334e-3
0.410, 9.268e-5, 4.339e-3
0.415, 8.872e-5, 4.343e-3
0.420, 8.422e-5, 4.348e-3
0.425, 8.033e-5, 4.352e-3
0.430, 7.662e-5, 4.355e-3
0.435, 7.225e-5, 4.359e-3
0.440, 6.816e-5, 4.362e-3
0.445, 6.447e-5, 4.366e-3
0.450, 6.033e-5, 4.369e-3
0.455, 5.640e-5, 4.371e-3
0.460, 5.295e-5, 4.374e-3
0.465, 4.961e-5, 4.377e-3
0.470, 4.600e-5, 4.379e-3
0.475, 4.253e-5, 4.381e-3
0.480, 3.947e-5, 4.383e-3
0.485, 3.589e-5, 4.385e-3
0.490, 3.258e-5, 4.386e-3
0.495, 2.975e-5, 4.388e-3
0.500, 2.693e-5, 4.389e-3
0.505, 2.393e-5, 4.390e-3
0.510, 2.123e-5, 4.391e-3
0.515, 1.894e-5, 4.392e-3
0.520, 1.630e-5, 4.393e-3
0.525, 1.382e-5, 4.394e-3
0.530, 1.189e-5, 4.395e-3
0.535, 9.697e-6, 4.395e-3
0.540, 7.381e-6, 4.395e-3
0.545, 5.590e-6, 4.396e-3
0.550, 3.960e-6, 4.396e-3
0.555, 1.939e-6, 4.396e-3
0.560, 3.155e-7, 4.396e-3
0.565, -9.022e-7, 4.396e-3
0.570, -2.503e-6, 4.396e-3
0.575, -4.056e-6, 4.396e-3
0.580, -4.982e-6, 4.395e-3
0.585, -6.119e-6, 4.395e-3
0.590, -7.593e-6, 4.395e-3
0.595, -8.483e-6, 4.394e-3
0.600, -9.212e-6, 4.394e-3
0.605, -1.040e-5, 4.393e-3
0.610, -1.132e-5, 4.393e-3
0.615, -1.162e-5, 4.392e-3
0.620, -1.253e-5, 4.391e-3
0.625, -1.352e-5, 4.391e-3
0.630, -1.380e-5, 4.390e-3
0.635, -1.429e-5, 4.389e-3
0.640, -1.524e-5, 4.389e-3
0.645, -1.565e-5, 4.388e-3
0.650, -1.579e-5, 4.387e-3
0.655, -1.656e-5, 4.386e-3
0.660, -1.719e-5, 4.385e-3
0.665, -1.719e-5, 4.385e-3
0.670, -1.762e-5, 4.384e-3
0.675, -1.839e-5, 4.383e-3
0.680, -1.845e-5, 4.382e-3
0.685, -1.858e-5, 4.381e-3
0.690, -1.930e-5, 4.380e-3
0.695, -1.958e-5, 4.379e-3
0.700, -1.951e-5, 4.378e-3
0.705, -2.000e-5, 4.377e-3
0.710, -2.056e-5, 4.376e-3
0.715, -2.049e-5, 4.375e-3
0.720, -2.070e-5, 4.374e-3
0.725, -2.142e-5, 4.373e-3
0.730, -2.146e-5, 4.372e-3
0.735, -2.145e-5, 4.371e-3
0.740, -2.206e-5, 4.370e-3
0.745, -2.239e-5, 4.368e-3
0.750, -2.226e-5, 4.367e-3
0.755, -2.263e-5, 4.366e-3
0.760, -2.323e-5, 4.365e-3
0.765, -2.317e-5, 4.364e-3
0.770, -2.334e-5, 4.363e-3
0.775, -2.404e-5, 4.362e-3
0.780, -2.419e-5, 4.360e-3
0.785, -2.415e-5, 4.359e-3
0.790, -2.470e-5, 4.358e-3
0.795, -2.515e-5, 4.357e-3
0.800, -2.504e-5, 4.355e-3
0.805, -2.537e-5, 4.354e-3
0.810, -2.598e-5, 4.353e-3
0.815, -2.603e-5, 4.351e-3
0.820, -2.612e-5, 4.350e-3
0.825, -2.677e-5, 4.349e-3
0.830, -2.707e-5, 4.347e-3
0.835, -2.705e-5, 4.346e-3
0.840, -2.752e-5, 4.345e-3
0.845, -2.806e-5, 4.343e-3
0.850, -2.805e-5, 4.342e-3
0.855, -2.831e-5, 4.341e-3
0.860, -2.897e-5, 4.339e-3
0.865, -2.910e-5, 4.338e-3
0.870, -2.920e-5, 4.336e-3
0.875, -2.978e-5, 4.335e-3
0.880, -3.013e-5, 4.333e-3
0.885, -3.011e-5, 4.332e-3
0.890, -3.052e-5, 4.330e-3
0.895, -3.106e-5, 4.329e-3
0.900, -3.106e-5, 4.327e-3
0.905, -3.124e-5, 4.325e-3
0.910, -3.191e-5, 4.324e-3
0.915, -3.207e-5, 4.322e-3
0.920, -3.210e-5, 4.321e-3
0.925, -3.259e-5, 4.319e-3
0.930, -3.296e-5, 4.317e-3
0.935, -3.288e-5, 4.316e-3
0.940, -3.312e-5, 4.314e-3
0.945, -3.365e-5, 4.312e-3
0.950, -3.361e-5, 4.311e-3
0.955, -3.368e-5, 4.309e-3
0.960, -3.417e-5, 4.307e-3
0.965, -3.431e-5, 4.306e-3
0.970, -3.424e-5, 4.304e-3
0.975, -3.463e-5, 4.302e-3
0.980, -3.497e-5, 4.300e-3
0.985, -3.486e-5, 4.299e-3
0.990, -3.500e-5, 4.297e-3
0.995, -3.547e-5, 4.295e-3
1.000, -3.545e-5, 4.293e-3
1.005, -3.541e-5, 4.292e-3
1.010, -3.585e-5, 4.290e-3
1.015, -3.603e-5, 4.288e-3
1.020, -3.590e-5, 4.286e-3
1.025, -3.608e-5, 4.284e-3
1.030, -3.646e-5, 4.283e-3
1.035, -3.635e-5, 4.281e-3
1.040, -3.641e-5, 4.279e-3
1.045, -3.689e-5, 4.277e-3
1.050, -3.690e-5, 4.275e-3
1.055, -3.683e-5, 4.273e-3
1.060, -3.719e-5, 4.272e-3
1.065, -3.742e-5, 4.270e-3
1.070, -3.726e-5, 4.268e-3
1.075, -3.748e-5, 4.266e-3
1.080, -3.790e-5, 4.264e-3
1.085, -3.783e-5, 4.262e-3
1.090, -3.784e-5, 4.260e-3
1.095, -3.829e-5, 4.258e-3
1.100, -3.392e-5, 4.257e-3

Segment 4:
1.095, -2.693e-5, 4.255e-3
1.090, -2.247e-5, 4.254e-3
1.085, -1.897e-5, 4.253e-3
1.080, -1.592e-5, 4.252e-3
1.075, -1.370e-5, 4.252e-3
1.070, -1.194e-5, 4.251e-3
1.065, -1.015e-5, 4.251e-3
1.060, -8.808e-6, 4.250e-3
1.055, -7.788e-6, 4.250e-3
1.050, -6.708e-6, 4.250e-3
1.045, -5.738e-6, 4.249e-3
1.040, -5.160e-6, 4.249e-3
1.035, -4.521e-6, 4.249e-3
1.030, -3.766e-6, 4.249e-3
1.025, -3.400e-6, 4.248e-3
1.020, -3.028e-6, 4.248e-3
1.015, -2.466e-6, 4.248e-3
1.010, -2.069e-6, 4.248e-3
1.005, -1.942e-6, 4.248e-3
1.000, -1.557e-6, 4.248e-3
0.995, -1.129e-6, 4.248e-3
0.990, -1.053e-6, 4.248e-3
0.985, -8.691e-7, 4.248e-3
0.980, -4.778e-7, 4.248e-3
0.975, -3.382e-7, 4.248e-3
0.970, -3.176e-7, 4.248e-3
0.965, 7.815e-9, 4.248e-3
0.960, 1.944e-7, 4.248e-3
0.955, 1.588e-7, 4.248e-3
0.950, 3.390e-7, 4.248e-3
0.945, 6.438e-7, 4.248e-3
0.940, 6.290e-7, 4.248e-3
0.935, 6.772e-7, 4.248e-3
0.930, 9.807e-7, 4.248e-3
0.925, 1.067e-6, 4.248e-3
0.920, 9.785e-7, 4.248e-3
0.915, 1.230e-6, 4.248e-3
0.910, 1.432e-6, 4.248e-3
0.905, 1.344e-6, 4.248e-3
0.900, 1.446e-6, 4.248e-3
0.895, 1.732e-6, 4.248e-3
0.890, 1.713e-6, 4.248e-3
0.885, 1.675e-6, 4.248e-3
0.880, 1.952e-6, 4.249e-3
0.875, 2.064e-6, 4.249e-3
0.870, 1.959e-6, 4.249e-3
0.865, 2.144e-6, 4.249e-3
0.860, 2.388e-6, 4.249e-3
0.855, 2.307e-6, 4.249e-3
0.850, 2.351e-6, 4.249e-3
0.845, 2.652e-6, 4.249e-3
0.840, 2.695e-6, 4.249e-3
0.835, 2.603e-6, 4.250e-3
0.830, 2.883e-6, 4.250e-3
0.825, 3.056e-6, 4.250e-3
0.820, 2.931e-6, 4.250e-3
0.815, 3.079e-6, 4.250e-3
0.810, 3.400e-6, 4.250e-3
0.805, 3.360e-6, 4.251e-3
0.800, 3.368e-6, 4.251e-3
0.795, 3.701e-6, 4.251e-3
0.790, 3.821e-6, 4.251e-3
0.785, 3.730e-6, 4.251e-3
0.780, 3.965e-6, 4.251e-3
0.775, 4.238e-6, 4.252e-3
0.770, 4.172e-6, 4.252e-3
0.765, 4.276e-6, 4.252e-3
0.760, 4.687e-6, 4.252e-3
0.755, 4.693e-6, 4.253e-3
0.750, 4.677e-6, 4.253e-3
0.745, 5.036e-6, 4.253e-3
0.740, 5.276e-6, 4.253e-3
0.735, 5.173e-6, 4.254e-3
0.730, 5.442e-6, 4.254e-3
0.725, 5.817e-6, 4.254e-3
0.720, 5.828e-6, 4.254e-3
0.715, 5.938e-6, 4.255e-3
0.710, 6.399e-6, 4.255e-3
0.705, 6.551e-6, 4.255e-3
0.700, 6.556e-6, 4.256e-3
0.695, 6.978e-6, 4.256e-3
0.690, 7.382e-6, 4.256e-3
0.685, 7.408e-6, 4.257e-3
0.680, 7.723e-6, 4.257e-3
0.675, 8.239e-6, 4.258e-3
0.670, 8.376e-6, 4.258e-3
0.665, 8.519e-6, 4.258e-3
0.660, 9.089e-6, 4.259e-3
0.655, 9.442e-6, 4.259e-3
0.650, 9.528e-6, 4.260e-3
0.645, 1.002e-5, 4.260e-3
0.640, 1.060e-5, 4.261e-3
0.635, 1.076e-5, 4.261e-3
0.630, 1.113e-5, 4.262e-3
0.625, 1.185e-5, 4.263e-3
0.620, 1.225e-5, 4.263e-3
0.615, 1.245e-5, 4.264e-3
0.610, 1.322e-5, 4.264e-3
0.605, 1.390e-5, 4.265e-3
0.600, 1.422e-5, 4.266e-3
0.595, 1.485e-5, 4.267e-3
0.590, 1.581e-5, 4.267e-3
0.585, 1.632e-5, 4.268e-3
0.580, 1.686e-5, 4.269e-3
0.575, 1.792e-5, 4.270e-3
0.570, 1.881e-5, 4.271e-3
0.565, 1.936e-5, 4.272e-3
0.560, 2.043e-5, 4.273e-3
0.555, 2.165e-5, 4.274e-3
0.550, 2.244e-5, 4.275e-3
0.545, 2.350e-5, 4.276e-3
0.540, 2.505e-5, 4.277e-3
0.535, 2.623e-5, 4.279e-3
0.530, 2.728e-5, 4.280e-3
0.525, 2.894e-5, 4.282e-3
0.520, 3.075e-5, 4.283e-3
0.515, 3.209e-5, 4.285e-3
0.510, 3.383e-5, 4.286e-3
0.505, 3.613e-5, 4.288e-3
0.500, 3.804e-5, 4.290e-3
0.495, 4.001e-5, 4.292e-3
0.490, 4.281e-5, 4.294e-3
0.485, 4.551e-5, 4.297e-3
0.480, 4.797e-5, 4.299e-3
0.475, 5.116e-5, 4.302e-3
0.470, 5.507e-5, 4.304e-3
0.465, 5.842e-5, 4.307e-3
0.460, 6.228e-5, 4.310e-3
0.455, 6.718e-5, 4.314e-3
0.450, 7.193e-5, 4.317e-3
0.445, 7.654e-5, 4.321e-3
0.440, 8.224e-5, 4.325e-3
0.435, 8.845e-5, 4.330e-3
0.430, 9.416e-5, 4.334e-3
0.425, 1.006e-4, 4.339e-3
0.420, 1.080e-4, 4.345e-3
0.415, 1.148e-4, 4.351e-3
0.410, 1.218e-4, 4.357e-3
0.405, 1.300e-4, 4.363e-3
0.400, 1.379e-4, 4.370e-3
0.395, 1.452e-4, 4.377e-3
0.390, 1.532e-4, 4.385e-3
0.385, 1.617e-4, 4.393e-3
0.380, 1.691e-4, 4.401e-3
0.375, 1.765e-4, 4.410e-3
0.370, 1.850e-4, 4.420e-3
0.365, 1.920e-4, 4.429e-3
0.360, 1.989e-4, 4.439e-3
0.355, 2.063e-4, 4.449e-3
0.350, 2.132e-4, 4.460e-3
0.345, 2.195e-4, 4.471e-3
0.340, 2.252e-4, 4.482e-3
0.335, 2.313e-4, 4.494e-3
0.330, 2.358e-4, 4.506e-3
0.325, 2.400e-4, 4.518e-3
0.320, 2.449e-4, 4.530e-3
0.315, 2.490e-4, 4.542e-3
0.310, 2.523e-4, 4.555e-3
0.305, 2.560e-4, 4.568e-3
0.300, 2.615e-4, 4.581e-3
0.295, 2.650e-4, 4.594e-3
0.290, 2.678e-4, 4.607e-3
0.285, 2.698e-4, 4.621e-3
0.280, 2.709e-4, 4.635e-3
0.275, 2.723e-4, 4.648e-3
0.270, 2.738e-4, 4.662e-3
0.265, 2.748e-4, 4.676e-3
0.260, 2.771e-4, 4.689e-3
0.255, 2.802e-4, 4.703e-3
0.250, 2.806e-4, 4.717e-3
0.245, 2.795e-4, 4.731e-3
0.240, 2.837e-4, 4.746e-3
0.235, 2.862e-4, 4.760e-3
0.230, 2.859e-4, 4.774e-3
0.225, 2.855e-4, 4.788e-3
0.220, 2.847e-4, 4.803e-3
0.215, 2.836e-4, 4.817e-3
0.210, 2.840e-4, 4.831e-3
0.205, 2.848e-4, 4.845e-3
0.200, 2.850e-4, 4.860e-3
0.195, 2.844e-4, 4.874e-3
0.190, 2.836e-4, 4.888e-3
0.185, 2.823e-4, 4.902e-3
0.180, 2.809e-4, 4.916e-3
0.175, 2.785e-4, 4.930e-3
0.170, 2.772e-4, 4.944e-3
0.165, 2.768e-4, 4.958e-3
0.160, 2.773e-4, 4.972e-3
0.155, 2.779e-4, 4.986e-3
0.150, 2.772e-4, 4.999e-3
0.145, 2.762e-4, 5.013e-3
0.140, 2.772e-4, 5.027e-3
0.135, 2.770e-4, 5.041e-3
0.130, 2.752e-4, 5.055e-3
0.125, 2.761e-4, 5.068e-3
0.120, 2.777e-4, 5.082e-3
0.115, 2.795e-4, 5.096e-3
0.110, 2.815e-4, 5.110e-3
0.105, 2.832e-4, 5.125e-3
0.100, 2.835e-4, 5.139e-3
0.095, 2.854e-4, 5.153e-3
0.090, 2.873e-4, 5.167e-3
0.085, 2.884e-4, 5.182e-3
0.080, 2.875e-4, 5.196e-3
0.075, 2.888e-4, 5.211e-3
0.070, 2.899e-4, 5.225e-3
0.065, 2.873e-4, 5.239e-3
0.060, 2.875e-4, 5.254e-3
0.055, 2.872e-4, 5.268e-3
0.050, 2.869e-4, 5.283e-3
0.045, 2.858e-4, 5.297e-3
0.040, 2.868e-4, 5.311e-3
0.035, 2.872e-4, 5.326e-3
0.030, 2.854e-4, 5.340e-3
0.025, 2.875e-4, 5.354e-3
0.020, 2.903e-4, 5.369e-3
0.015, 2.908e-4, 5.383e-3
0.010, 2.927e-4, 5.398e-3
0.005, 2.947e-4, 5.413e-3
0.000, 2.962e-4, 5.427e-3
-0.005, 2.994e-4, 5.442e-3
-0.010, 3.165e-4, 5.458e-3
-0.015, 3.417e-4, 5.475e-3
-0.020, 3.348e-4, 5.492e-3
-0.025, 3.285e-4, 5.508e-3
-0.030, 3.228e-4, 5.525e-3
-0.035, 3.162e-4, 5.540e-3
-0.040, 3.145e-4, 5.556e-3
-0.045, 3.241e-4, 5.572e-3
-0.050, 3.195e-4, 5.588e-3
-0.055, 3.107e-4, 5.604e-3
-0.060, 3.058e-4, 5.619e-3
-0.065, 3.088e-4, 5.635e-3
-0.070, 3.289e-4, 5.651e-3
-0.075, 3.539e-4, 5.669e-3
-0.080, 3.533e-4, 5.686e-3
-0.085, 3.452e-4, 5.704e-3
-0.090, 3.407e-4, 5.721e-3
-0.095, 3.365e-4, 5.738e-3
-0.100, 3.334e-4, 5.754e-3
-0.105, 3.271e-4, 5.771e-3
-0.110, 3.257e-4, 5.787e-3
-0.115, 3.256e-4, 5.803e-3
-0.120, 3.255e-4, 5.819e-3
-0.125, 3.239e-4, 5.836e-3
-0.130, 3.202e-4, 5.852e-3
-0.135, 3.216e-4, 5.868e-3
-0.140, 3.206e-4, 5.884e-3
-0.145, 3.243e-4, 5.900e-3
-0.150, 3.276e-4, 5.916e-3
-0.155, 3.265e-4, 5.933e-3
-0.160, 3.289e-4, 5.949e-3
-0.165, 3.302e-4, 5.966e-3
-0.170, 3.297e-4, 5.982e-3
-0.175, 3.285e-4, 5.998e-3
-0.180, 3.275e-4, 6.015e-3
-0.185, 3.280e-4, 6.031e-3
-0.190, 3.275e-4, 6.048e-3
-0.195, 3.310e-4, 6.064e-3
-0.200, 3.320e-4, 6.081e-3
-0.205, 3.287e-4, 6.097e-3
-0.210, 3.266e-4, 6.114e-3
-0.215, 3.264e-4, 6.130e-3
-0.220, 3.285e-4, 6.146e-3
-0.225, 3.290e-4, 6.163e-3
-0.230, 3.275e-4, 6.179e-3
-0.235, 3.286e-4, 6.196e-3
-0.240, 3.268e-4, 6.212e-3
-0.245, 3.266e-4, 6.228e-3
-0.250, 3.285e-4, 6.245e-3
-0.255, 3.290e-4, 6.261e-3
-0.260, 3.317e-4, 6.278e-3
-0.265, 3.326e-4, 6.294e-3
-0.270, 3.337e-4, 6.311e-3
-0.275, 3.296e-4, 6.327e-3
-0.280, 3.296e-4, 6.344e-3
-0.285, 3.311e-4, 6.361e-3
-0.290, 3.279e-4, 6.377e-3
-0.295, 3.275e-4, 6.393e-3
-0.300, 3.037e-4, 6.408e-3

Segment 5:
-0.295, 2.804e-4, 6.422e-3
-0.290, 2.758e-4, 6.436e-3
-0.285, 2.825e-4, 6.450e-3
-0.280, 2.860e-4, 6.465e-3
-0.275, 2.814e-4, 6.479e-3
-0.270, 2.791e-4, 6.493e-3
-0.265, 2.776e-4, 6.507e-3
-0.260, 2.705e-4, 6.520e-3
-0.255, 2.675e-4, 6.534e-3
-0.250, 2.651e-4, 6.547e-3
-0.245, 2.603e-4, 6.560e-3
-0.240, 2.564e-4, 6.573e-3
-0.235, 2.549e-4, 6.585e-3
-0.230, 2.559e-4, 6.598e-3
-0.225, 2.558e-4, 6.611e-3
-0.220, 2.574e-4, 6.624e-3
-0.215, 2.609e-4, 6.637e-3
-0.210, 2.615e-4, 6.650e-3
-0.205, 2.629e-4, 6.663e-3
-0.200, 2.657e-4, 6.676e-3
-0.195, 2.759e-4, 6.690e-3
-0.190, 2.755e-4, 6.704e-3
-0.185, 2.665e-4, 6.717e-3
-0.180, 2.632e-4, 6.730e-3
-0.175, 2.556e-4, 6.743e-3
-0.170, 2.510e-4, 6.756e-3
-0.165, 2.488e-4, 6.768e-3
-0.160, 2.450e-4, 6.780e-3
-0.155, 2.437e-4, 6.793e-3
-0.150, 2.437e-4, 6.805e-3
-0.145, 2.458e-4, 6.817e-3
-0.140, 2.444e-4, 6.829e-3
-0.135, 2.464e-4, 6.842e-3
-0.130, 2.497e-4, 6.854e-3
-0.125, 2.502e-4, 6.867e-3
-0.120, 2.524e-4, 6.879e-3
-0.115, 2.522e-4, 6.892e-3
-0.110, 2.506e-4, 6.904e-3
-0.105, 2.503e-4, 6.917e-3
-0.100, 2.478e-4, 6.929e-3
-0.095, 2.463e-4, 6.942e-3
-0.090, 2.441e-4, 6.954e-3
-0.085, 2.464e-4, 6.966e-3
-0.080, 2.524e-4, 6.979e-3
-0.075, 2.579e-4, 6.992e-3
-0.070, 2.686e-4, 7.005e-3
-0.065, 2.760e-4, 7.019e-3
-0.060, 2.753e-4, 7.033e-3
-0.055, 2.736e-4, 7.046e-3
-0.050, 2.702e-4, 7.060e-3
-0.045, 2.686e-4, 7.073e-3
-0.040, 2.632e-4, 7.086e-3
-0.035, 2.773e-4, 7.100e-3
-0.030, 3.094e-4, 7.116e-3
-0.025, 2.958e-4, 7.131e-3
-0.020, 2.895e-4, 7.145e-3
-0.015, 2.887e-4, 7.159e-3
-0.010, 2.867e-4, 7.174e-3
-0.005, 2.850e-4, 7.188e-3
-0.000, 2.883e-4, 7.202e-3
0.005, 2.973e-4, 7.217e-3
0.010, 2.943e-4, 7.232e-3
0.015, 2.863e-4, 7.246e-3
0.020, 2.790e-4, 7.260e-3
0.025, 2.727e-4, 7.274e-3
0.030, 2.700e-4, 7.287e-3
0.035, 2.692e-4, 7.301e-3
0.040, 2.679e-4, 7.314e-3
0.045, 2.656e-4, 7.328e-3
0.050, 2.633e-4, 7.341e-3
0.055, 2.617e-4, 7.354e-3
0.060, 2.550e-4, 7.367e-3
0.065, 2.535e-4, 7.379e-3
0.070, 2.548e-4, 7.392e-3
0.075, 2.534e-4, 7.405e-3
0.080, 2.538e-4, 7.417e-3
0.085, 2.544e-4, 7.430e-3
0.090, 2.554e-4, 7.443e-3
0.095, 2.517e-4, 7.455e-3
0.100, 2.485e-4, 7.468e-3
0.105, 2.467e-4, 7.480e-3
0.110, 2.423e-4, 7.492e-3
0.115, 2.426e-4, 7.504e-3
0.120, 2.437e-4, 7.517e-3
0.125, 2.425e-4, 7.529e-3
0.130, 2.427e-4, 7.541e-3
0.135, 2.441e-4, 7.553e-3
0.140, 2.433e-4, 7.565e-3
0.145, 2.406e-4, 7.577e-3
0.150, 2.393e-4, 7.589e-3
0.155, 2.387e-4, 7.601e-3
0.160, 2.359e-4, 7.613e-3
0.165, 2.354e-4, 7.625e-3
0.170, 2.349e-4, 7.636e-3
0.175, 2.345e-4, 7.648e-3
0.180, 2.355e-4, 7.660e-3
0.185, 2.358e-4, 7.672e-3
0.190, 2.342e-4, 7.683e-3
0.195, 2.334e-4, 7.695e-3
0.200, 2.308e-4, 7.707e-3
0.205, 2.282e-4, 7.718e-3
0.210, 2.243e-4, 7.729e-3
0.215, 2.218e-4, 7.740e-3
0.220, 2.203e-4, 7.751e-3
0.225, 2.207e-4, 7.762e-3
0.230, 2.241e-4, 7.774e-3
0.235, 2.215e-4, 7.785e-3
0.240, 2.173e-4, 7.796e-3
0.245, 2.139e-4, 7.806e-3
0.250, 2.099e-4, 7.817e-3
0.255, 2.056e-4, 7.827e-3
0.260, 2.021e-4, 7.837e-3
0.265, 2.002e-4, 7.847e-3
0.270, 1.996e-4, 7.857e-3
0.275, 1.979e-4, 7.867e-3
0.280, 1.966e-4, 7.877e-3
0.285, 1.917e-4, 7.886e-3
0.290, 1.864e-4, 7.896e-3
0.295, 1.839e-4, 7.905e-3
0.300, 1.801e-4, 7.914e-3
0.305, 1.776e-4, 7.923e-3
0.310, 1.745e-4, 7.932e-3
0.315, 1.707e-4, 7.940e-3
0.320, 1.678e-4, 7.949e-3
0.325, 1.680e-4, 7.957e-3
0.330, 1.682e-4, 7.965e-3
0.335, 1.655e-4, 7.974e-3
0.340, 1.612e-4, 7.982e-3
0.345, 1.552e-4, 7.989e-3
0.350, 1.500e-4, 7.997e-3
0.355, 1.452e-4, 8.004e-3
0.360, 1.404e-4, 8.011e-3
0.365, 1.364e-4, 8.018e-3
0.370, 1.318e-4, 8.025e-3
0.375, 1.276e-4, 8.031e-3
0.380, 1.230e-4, 8.037e-3
0.385, 1.183e-4, 8.043e-3
0.390, 1.152e-4, 8.049e-3
0.395, 1.124e-4, 8.054e-3
0.400, 1.092e-4, 8.060e-3
0.405, 1.058e-4, 8.065e-3
0.410, 1.017e-4, 8.070e-3
0.415, 9.668e-5, 8.075e-3
0.420, 9.131e-5, 8.080e-3
0.425, 8.643e-5, 8.084e-3
0.430, 8.130e-5, 8.088e-3
0.435, 7.665e-5, 8.092e-3
0.440, 7.310e-5, 8.096e-3
0.445, 6.953e-5, 8.099e-3
0.450, 6.505e-5, 8.102e-3
0.455, 6.071e-5, 8.105e-3
0.460, 5.680e-5, 8.108e-3
0.465, 5.247e-5, 8.111e-3
0.470, 4.846e-5, 8.113e-3
0.475, 4.507e-5, 8.115e-3
0.480, 4.151e-5, 8.118e-3
0.485, 3.790e-5, 8.119e-3
0.490, 3.487e-5, 8.121e-3
0.495, 3.192e-5, 8.123e-3
0.500, 2.857e-5, 8.124e-3
0.505, 2.569e-5, 8.125e-3
0.510, 2.310e-5, 8.127e-3
0.515, 2.020e-5, 8.128e-3
0.520, 1.744e-5, 8.128e-3
0.525, 1.529e-5, 8.129e-3
0.530, 1.291e-5, 8.130e-3
0.535, 1.040e-5, 8.130e-3
0.540, 8.469e-6, 8.131e-3
0.545, 6.588e-6, 8.131e-3
0.550, 4.320e-6, 8.131e-3
0.555, 2.493e-6, 8.132e-3
0.560, 1.093e-6, 8.132e-3
0.565, -7.400e-7, 8.132e-3
0.570, -2.483e-6, 8.131e-3
0.575, -3.565e-6, 8.131e-3
0.580, -4.872e-6, 8.131e-3
0.585, -6.480e-6, 8.131e-3
0.590, -7.428e-6, 8.130e-3
0.595, -8.289e-6, 8.130e-3
0.600, -9.689e-6, 8.129e-3
0.605, -1.068e-5, 8.129e-3
0.610, -1.117e-5, 8.128e-3
0.615, -1.207e-5, 8.128e-3
0.620, -1.316e-5, 8.127e-3
0.625, -1.352e-5, 8.126e-3
0.630, -1.408e-5, 8.126e-3
0.635, -1.514e-5, 8.125e-3
0.640, -1.550e-5, 8.124e-3
0.645, -1.573e-5, 8.123e-3
0.650, -1.661e-5, 8.123e-3
0.655, -1.718e-5, 8.122e-3
0.660, -1.719e-5, 8.121e-3
0.665, -1.776e-5, 8.120e-3
0.670, -1.849e-5, 8.119e-3
0.675, -1.849e-5, 8.118e-3
0.680, -1.870e-5, 8.117e-3
0.685, -1.949e-5, 8.116e-3
0.690, -1.966e-5, 8.115e-3
0.695, -1.962e-5, 8.114e-3
0.700, -2.024e-5, 8.113e-3
0.705, -2.069e-5, 8.112e-3
0.710, -2.056e-5, 8.111e-3
0.715, -2.094e-5, 8.110e-3
0.720, -2.161e-5, 8.109e-3
0.725, -2.155e-5, 8.108e-3
0.730, -2.161e-5, 8.107e-3
0.735, -2.229e-5, 8.106e-3
0.740, -2.250e-5, 8.105e-3
0.745, -2.236e-5, 8.103e-3
0.750, -2.286e-5, 8.102e-3
0.755, -2.336e-5, 8.101e-3
0.760, -2.324e-5, 8.100e-3
0.765, -2.347e-5, 8.099e-3
0.770, -2.423e-5, 8.098e-3
0.775, -2.425e-5, 8.096e-3
0.780, -2.428e-5, 8.095e-3
0.785, -2.491e-5, 8.094e-3
0.790, -2.520e-5, 8.093e-3
0.795, -2.510e-5, 8.091e-3
0.800, -2.552e-5, 8.090e-3
0.805, -2.610e-5, 8.089e-3
0.810, -2.605e-5, 8.088e-3
0.815, -2.625e-5, 8.086e-3
0.820, -2.692e-5, 8.085e-3
0.825, -2.709e-5, 8.084e-3
0.830, -2.712e-5, 8.082e-3
0.835, -2.770e-5, 8.081e-3
0.840, -2.813e-5, 8.079e-3
0.845, -2.807e-5, 8.078e-3
0.850, -2.844e-5, 8.077e-3
0.855, -2.907e-5, 8.075e-3
0.860, -2.911e-5, 8.074e-3
0.865, -2.927e-5, 8.072e-3
0.870, -2.997e-5, 8.071e-3
0.875, -3.018e-5, 8.069e-3
0.880, -3.021e-5, 8.068e-3
0.885, -3.073e-5, 8.066e-3
0.890, -3.118e-5, 8.065e-3
0.895, -3.112e-5, 8.063e-3
0.900, -3.142e-5, 8.061e-3
0.905, -3.209e-5, 8.060e-3
0.910, -3.214e-5, 8.058e-3
0.915, -3.223e-5, 8.057e-3
0.920, -3.285e-5, 8.055e-3
0.925, -3.306e-5, 8.053e-3
0.930, -3.302e-5, 8.052e-3
0.935, -3.340e-5, 8.050e-3
0.940, -3.384e-5, 8.048e-3
0.945, -3.374e-5, 8.047e-3
0.950, -3.390e-5, 8.045e-3
0.955, -3.445e-5, 8.043e-3
0.960, -3.447e-5, 8.041e-3
0.965, -3.444e-5, 8.040e-3
0.970, -3.492e-5, 8.038e-3
0.975, -3.514e-5, 8.036e-3
0.980, -3.499e-5, 8.035e-3
0.985, -3.526e-5, 8.033e-3
0.990, -3.568e-5, 8.031e-3
0.995, -3.554e-5, 8.029e-3
1.000, -3.562e-5, 8.027e-3
1.005, -3.610e-5, 8.026e-3
1.010, -3.611e-5, 8.024e-3
1.015, -3.600e-5, 8.022e-3
1.020, -3.641e-5, 8.020e-3
1.025, -3.658e-5, 8.018e-3
1.030, -3.642e-5, 8.017e-3
1.035, -3.663e-5, 8.015e-3
1.040, -3.703e-5, 8.013e-3
1.045, -3.693e-5, 8.011e-3
1.050, -3.692e-5, 8.009e-3
1.055, -3.738e-5, 8.007e-3
1.060, -3.743e-5, 8.005e-3
1.065, -3.733e-5, 8.004e-3
1.070, -3.767e-5, 8.002e-3
1.075, -3.796e-5, 8.000e-3
1.080, -3.781e-5, 7.998e-3
1.085, -3.797e-5, 7.996e-3
1.090, -3.840e-5, 7.994e-3
1.095, -3.834e-5, 7.992e-3
1.100, -3.383e-5, 7.990e-3

Segment 6:
1.095, -2.728e-5, 7.989e-3
1.090, -2.253e-5, 7.988e-3
1.085, -1.876e-5, 7.987e-3
1.080, -1.609e-5, 7.986e-3
1.075, -1.381e-5, 7.986e-3
1.070, -1.171e-5, 7.985e-3
1.065, -1.020e-5, 7.984e-3
1.060, -8.997e-6, 7.984e-3
1.055, -7.609e-6, 7.984e-3
1.050, -6.604e-6, 7.983e-3
1.045, -5.945e-6, 7.983e-3
1.040, -5.098e-6, 7.983e-3
1.035, -4.324e-6, 7.982e-3
1.030, -3.910e-6, 7.982e-3
1.025, -3.474e-6, 7.982e-3
1.020, -2.797e-6, 7.982e-3
1.015, -2.492e-6, 7.982e-3
1.010, -2.247e-6, 7.982e-3
1.005, -1.763e-6, 7.982e-3
1.000, -1.455e-6, 7.982e-3
0.995, -1.351e-6, 7.982e-3
0.990, -1.004e-6, 7.981e-3
0.985, -6.699e-7, 7.981e-3
0.980, -6.168e-7, 7.981e-3
0.975, -4.479e-7, 7.981e-3
0.970, -7.841e-8, 7.981e-3
0.965, 2.873e-9, 7.981e-3
0.960, 2.481e-8, 7.981e-3
0.955, 3.144e-7, 7.981e-3
0.950, 4.805e-7, 7.981e-3
0.945, 4.302e-7, 7.981e-3
0.940, 6.275e-7, 7.981e-3
0.935, 9.160e-7, 7.982e-3
0.930, 8.732e-7, 7.982e-3
0.925, 9.318e-7, 7.982e-3
0.920, 1.222e-6, 7.982e-3
0.915, 1.286e-6, 7.982e-3
0.910, 1.197e-6, 7.982e-3
0.905, 1.460e-6, 7.982e-3
0.900, 1.626e-6, 7.982e-3
0.895, 1.529e-6, 7.982e-3
0.890, 1.648e-6, 7.982e-3
0.885, 1.937e-6, 7.982e-3
0.880, 1.891e-6, 7.982e-3
0.875, 1.887e-6, 7.982e-3
0.870, 2.185e-6, 7.982e-3
0.865, 2.243e-6, 7.983e-3
0.860, 2.134e-6, 7.983e-3
0.855, 2.376e-6, 7.983e-3
0.850, 2.585e-6, 7.983e-3
0.845, 2.465e-6, 7.983e-3
0.840, 2.573e-6, 7.983e-3
0.835, 2.888e-6, 7.983e-3
0.830, 2.866e-6, 7.983e-3
0.825, 2.824e-6, 7.984e-3
0.820, 3.125e-6, 7.984e-3
0.815, 3.261e-6, 7.984e-3
0.810, 3.135e-6, 7.984e-3
0.805, 3.381e-6, 7.984e-3
0.800, 3.624e-6, 7.984e-3
0.795, 3.557e-6, 7.985e-3
0.790, 3.629e-6, 7.985e-3
0.785, 4.013e-6, 7.985e-3
0.780, 4.029e-6, 7.985e-3
0.775, 3.983e-6, 7.985e-3
0.770, 4.315e-6, 7.986e-3
0.765, 4.511e-6, 7.986e-3
0.760, 4.402e-6, 7.986e-3
0.755, 4.632e-6, 7.986e-3
0.750, 5.005e-6, 7.987e-3
0.745, 4.976e-6, 7.987e-3
0.740, 5.042e-6, 7.987e-3
0.735, 5.468e-6, 7.987e-3
0.730, 5.563e-6, 7.988e-3
0.725, 5.528e-6, 7.988e-3
0.720, 5.926e-6, 7.988e-3
0.715, 6.238e-6, 7.989e-3
0.710, 6.178e-6, 7.989e-3
0.705, 6.426e-6, 7.989e-3
0.700, 6.914e-6, 7.989e-3
0.695, 6.989e-6, 7.990e-3
0.690, 7.075e-6, 7.990e-3
0.685, 7.666e-6, 7.991e-3
0.680, 7.934e-6, 7.991e-3
0.675, 7.955e-6, 7.991e-3
0.670, 8.413e-6, 7.992e-3
0.665, 8.880e-6, 7.992e-3
0.660, 8.951e-6, 7.993e-3
0.655, 9.264e-6, 7.993e-3
0.650, 9.894e-6, 7.994e-3
0.645, 1.014e-5, 7.994e-3
0.640, 1.030e-5, 7.995e-3
0.635, 1.098e-5, 7.995e-3
0.630, 1.146e-5, 7.996e-3
0.625, 1.164e-5, 7.996e-3
0.620, 1.221e-5, 7.997e-3
0.615, 1.289e-5, 7.998e-3
0.610, 1.322e-5, 7.998e-3
0.605, 1.368e-5, 7.999e-3
0.600, 1.459e-5, 8.000e-3
0.595, 1.517e-5, 8.000e-3
0.590, 1.556e-5, 8.001e-3
0.585, 1.649e-5, 8.002e-3
0.580, 1.738e-5, 8.003e-3
0.575, 1.786e-5, 8.004e-3
0.570, 1.872e-5, 8.005e-3
0.565, 1.995e-5, 8.006e-3
0.560, 2.072e-5, 8.007e-3
0.555, 2.152e-5, 8.008e-3
0.550, 2.296e-5, 8.009e-3
0.545, 2.416e-5, 8.010e-3
0.540, 2.504e-5, 8.011e-3
0.535, 2.649e-5, 8.013e-3
0.530, 2.816e-5, 8.014e-3
0.525, 2.934e-5, 8.016e-3
0.520, 3.086e-5, 8.017e-3
0.515, 3.303e-5, 8.019e-3
0.510, 3.476e-5, 8.021e-3
0.505, 3.644e-5, 8.022e-3
0.500, 3.896e-5, 8.024e-3
0.495, 4.150e-5, 8.026e-3
0.490, 4.361e-5, 8.029e-3
0.485, 4.635e-5, 8.031e-3
0.480, 4.980e-5, 8.033e-3
0.475, 5.281e-5, 8.036e-3
0.470, 5.617e-5, 8.039e-3
0.465, 6.060e-5, 8.042e-3
0.460, 6.495e-5, 8.045e-3
0.455, 6.913e-5, 8.049e-3
0.450, 7.437e-5, 8.052e-3
0.445, 8.020e-5, 8.056e-3
0.440, 8.552e-5, 8.061e-3
0.435, 9.154e-5, 8.065e-3
0.430, 9.876e-5, 8.070e-3
0.425, 1.055e-4, 8.075e-3
0.420, 1.122e-4, 8.081e-3
0.415, 1.203e-4, 8.087e-3
0.410, 1.284e-4, 8.093e-3
0.405, 1.358e-4, 8.100e-3
0.400, 1.439e-4, 8.107e-3
0.395, 1.527e-4, 8.115e-3
0.390, 1.606e-4, 8.123e-3
0.385, 1.684e-4, 8.132e-3
0.380, 1.772e-4, 8.140e-3
0.375, 1.850e-4, 8.150e-3
0.370, 1.920e-4, 8.159e-3
0.365, 2.000e-4, 8.169e-3
0.360, 2.080e-4, 8.180e-3
0.355, 2.145e-4, 8.190e-3
0.350, 2.208e-4, 8.201e-3
0.345, 2.275e-4, 8.213e-3
0.340, 2.328e-4, 8.224e-3
0.335, 2.381e-4, 8.236e-3
0.330, 2.438e-4, 8.249e-3
0.325, 2.486e-4, 8.261e-3
0.320, 2.527e-4, 8.274e-3
0.315, 2.568e-4, 8.286e-3
0.310, 2.609e-4, 8.299e-3
0.305, 2.636e-4, 8.313e-3
0.300, 2.662e-4, 8.326e-3
0.295, 2.688e-4, 8.339e-3
0.290, 2.706e-4, 8.353e-3
0.285, 2.718e-4, 8.367e-3
0.280, 2.737e-4, 8.380e-3
0.275, 2.755e-4, 8.394e-3
0.270, 2.771e-4, 8.408e-3
0.265, 2.785e-4, 8.422e-3
0.260, 2.796e-4, 8.436e-3
0.255, 2.811e-4, 8.450e-3
0.250, 2.823e-4, 8.464e-3
0.245, 2.838e-4, 8.478e-3
0.240, 2.848e-4, 8.492e-3
0.235, 2.855e-4, 8.507e-3
0.230, 2.869e-4, 8.521e-3
0.225, 2.877e-4, 8.535e-3
0.220, 2.856e-4, 8.550e-3
0.215, 2.852e-4, 8.564e-3
0.210, 2.846e-4, 8.578e-3
0.205, 2.829e-4, 8.592e-3
0.200, 2.810e-4, 8.606e-3
0.195, 2.788e-4, 8.620e-3
0.190, 2.778e-4, 8.634e-3
0.185, 2.760e-4, 8.648e-3
0.180, 2.755e-4, 8.662e-3
0.175, 2.751e-4, 8.675e-3
0.170, 2.759e-4, 8.689e-3
0.165, 2.776e-4, 8.703e-3
0.160, 2.790e-4, 8.717e-3
0.155, 2.821e-4, 8.731e-3
0.150, 2.846e-4, 8.745e-3
0.145, 2.858e-4, 8.760e-3
0.140, 2.859e-4, 8.774e-3
0.135, 2.866e-4, 8.788e-3
0.130, 2.876e-4, 8.803e-3
0.125, 2.845e-4, 8.817e-3
0.120, 2.847e-4, 8.831e-3
0.115, 2.855e-4, 8.845e-3
0.110, 2.886e-4, 8.860e-3
0.105, 2.849e-4, 8.874e-3
0.100, 2.823e-4, 8.888e-3
0.095, 2.816e-4, 8.902e-3
0.090, 2.834e-4, 8.916e-3
0.085, 2.845e-4, 8.931e-3
0.080, 2.829e-4, 8.945e-3
0.075, 2.807e-4, 8.959e-3
0.070, 2.801e-4, 8.973e-3
0.065, 2.803e-4, 8.987e-3
0.060, 2.791e-4, 9.001e-3
0.055, 2.807e-4, 9.015e-3
0.050, 2.827e-4, 9.029e-3
0.045, 2.826e-4, 9.043e-3
0.040, 2.829e-4, 9.057e-3
0.035, 2.842e-4, 9.072e-3
0.030, 2.852e-4, 9.086e-3
0.025, 2.830e-4, 9.100e-3
0.020, 2.892e-4, 9.114e-3
0.015, 3.059e-4, 9.130e-3
0.010, 3.282e-4, 9.146e-3
0.005, 3.366e-4, 9.163e-3
0.000, 3.288e-4, 9.179e-3
-0.005, 3.213e-4, 9.195e-3
-0.010, 3.186e-4, 9.211e-3
-0.015, 3.189e-4, 9.227e-3
-0.020, 3.183e-4, 9.243e-3
-0.025, 3.161e-4, 9.259e-3
-0.030, 3.142e-4, 9.275e-3
-0.035, 3.127e-4, 9.290e-3
-0.040, 3.108e-4, 9.306e-3
-0.045, 3.144e-4, 9.322e-3
-0.050, 3.163e-4, 9.337e-3
-0.055, 3.219e-4, 9.354e-3
-0.060, 3.185e-4, 9.369e-3
-0.065, 3.216e-4, 9.386e-3
-0.070, 3.256e-4, 9.402e-3
-0.075, 3.209e-4, 9.418e-3
-0.080, 3.229e-4, 9.434e-3
-0.085, 3.250e-4, 9.450e-3
-0.090, 3.236e-4, 9.466e-3
-0.095, 3.218e-4, 9.483e-3
-0.100, 3.210e-4, 9.499e-3
-0.105, 3.205e-4, 9.515e-3
-0.110, 3.186e-4, 9.531e-3
-0.115, 3.221e-4, 9.547e-3
-0.120, 3.275e-4, 9.563e-3
-0.125, 3.234e-4, 9.579e-3
-0.130, 3.227e-4, 9.595e-3
-0.135, 3.206e-4, 9.611e-3
-0.140, 3.157e-4, 9.627e-3
-0.145, 3.093e-4, 9.643e-3
-0.150, 3.070e-4, 9.658e-3
-0.155, 3.100e-4, 9.673e-3
-0.160, 3.103e-4, 9.689e-3
-0.165, 3.112e-4, 9.705e-3
-0.170, 3.139e-4, 9.720e-3
-0.175, 3.143e-4, 9.736e-3
-0.180, 3.184e-4, 9.752e-3
-0.185, 3.232e-4, 9.768e-3
-0.190, 3.279e-4, 9.784e-3
-0.195, 3.298e-4, 9.801e-3
-0.200, 3.334e-4, 9.818e-3
-0.205, 3.366e-4, 9.834e-3
-0.210, 3.347e-4, 9.851e-3
-0.215, 3.342e-4, 9.868e-3
-0.220, 3.345e-4, 9.885e-3
-0.225, 3.335e-4, 9.901e-3
-0.230, 3.330e-4, 9.918e-3
-0.235, 3.328e-4, 9.935e-3
-0.240, 3.328e-4, 9.951e-3
-0.245, 3.302e-4, 9.968e-3
-0.250, 3.292e-4, 9.984e-3
-0.255, 3.296e-4, 1.000e-2
-0.260, 3.253e-4, 1.002e-2
-0.265, 3.232e-4, 1.003e-2
-0.270, 3.218e-4, 1.005e-2
-0.275, 3.184e-4, 1.007e-2
-0.280, 3.165e-4, 1.008e-2
-0.285, 3.189e-4, 1.010e-2
-0.290, 3.223e-4, 1.011e-2
-0.295, 3.155e-4, 1.013e-2
-0.300, 2.988e-4, 1.014e-2
