Oct. 19, 2023   13:42:56
Cyclic Voltammetry
File: c:\users\pku\desktop\zzxµç»¯Ñ§\low.txt
Data Source:  Experiment
Instrument Model:  CHI600B
Header: 
Note: 

Init E (V) = 0
High E (V) = 1.1
Low E (V) = -0.3
Init P/N = P
Scan Rate (V/s) = 0.1
Segment = 6
Sample Interval (V) = 0.005
Quiet Time (sec) = 2
Sensitivity (A/V) = 5e-5

Segment 1:

Segment 2:

Segment 3:
Segment 4:
Ep = 0.280V
ip = 1.302e-4A
Ah = 1.633e-4C

Segment 5:
Segment 6:
Ep = 0.285V
ip = 1.410e-4A
Ah = 1.743e-4C

Ep = -0.250V
ip = 1.881e-5A
Ah = 9.300e-6C

Potential/V, Current/A, Charge/C

Segment 1:
0.005, 2.644e-4, 1.322e-5
0.010, 2.647e-4, 2.645e-5
0.015, 2.643e-4, 3.967e-5
0.020, 2.635e-4, 5.284e-5
0.025, 2.628e-4, 6.598e-5
0.030, 2.629e-4, 7.913e-5
0.035, 2.637e-4, 9.231e-5
0.040, 2.644e-4, 1.055e-4
0.045, 2.639e-4, 1.187e-4
0.050, 2.625e-4, 1.319e-4
0.055, 2.606e-4, 1.449e-4
0.060, 2.585e-4, 1.578e-4
0.065, 2.556e-4, 1.706e-4
0.070, 2.520e-4, 1.832e-4
0.075, 2.480e-4, 1.956e-4
0.080, 2.448e-4, 2.078e-4
0.085, 2.421e-4, 2.199e-4
0.090, 2.402e-4, 2.320e-4
0.095, 2.389e-4, 2.439e-4
0.100, 2.378e-4, 2.558e-4
0.105, 2.365e-4, 2.676e-4
0.110, 2.350e-4, 2.794e-4
0.115, 2.331e-4, 2.910e-4
0.120, 2.311e-4, 3.026e-4
0.125, 2.290e-4, 3.140e-4
0.130, 2.270e-4, 3.254e-4
0.135, 2.249e-4, 3.366e-4
0.140, 2.230e-4, 3.478e-4
0.145, 2.209e-4, 3.588e-4
0.150, 2.191e-4, 3.698e-4
0.155, 2.173e-4, 3.806e-4
0.160, 2.155e-4, 3.914e-4
0.165, 2.137e-4, 4.021e-4
0.170, 2.118e-4, 4.127e-4
0.175, 2.096e-4, 4.232e-4
0.180, 2.070e-4, 4.335e-4
0.185, 2.041e-4, 4.437e-4
0.190, 2.011e-4, 4.538e-4
0.195, 1.983e-4, 4.637e-4
0.200, 1.959e-4, 4.735e-4
0.205, 1.936e-4, 4.832e-4
0.210, 1.916e-4, 4.927e-4
0.215, 1.897e-4, 5.022e-4
0.220, 1.880e-4, 5.116e-4
0.225, 1.862e-4, 5.209e-4
0.230, 1.845e-4, 5.302e-4
0.235, 1.826e-4, 5.393e-4
0.240, 1.808e-4, 5.483e-4
0.245, 1.790e-4, 5.573e-4
0.250, 1.769e-4, 5.661e-4
0.255, 1.745e-4, 5.749e-4
0.260, 1.716e-4, 5.834e-4
0.265, 1.685e-4, 5.919e-4
0.270, 1.651e-4, 6.001e-4
0.275, 1.614e-4, 6.082e-4
0.280, 1.578e-4, 6.161e-4
0.285, 1.540e-4, 6.238e-4
0.290, 1.505e-4, 6.313e-4
0.295, 1.470e-4, 6.386e-4
0.300, 1.437e-4, 6.458e-4
0.305, 1.404e-4, 6.529e-4
0.310, 1.370e-4, 6.597e-4
0.315, 1.336e-4, 6.664e-4
0.320, 1.300e-4, 6.729e-4
0.325, 1.265e-4, 6.792e-4
0.330, 1.226e-4, 6.853e-4
0.335, 1.189e-4, 6.913e-4
0.340, 1.150e-4, 6.970e-4
0.345, 1.113e-4, 7.026e-4
0.350, 1.076e-4, 7.080e-4
0.355, 1.040e-4, 7.132e-4
0.360, 1.003e-4, 7.182e-4
0.365, 9.662e-5, 7.230e-4
0.370, 9.302e-5, 7.277e-4
0.375, 8.943e-5, 7.322e-4
0.380, 8.586e-5, 7.364e-4
0.385, 8.231e-5, 7.406e-4
0.390, 7.886e-5, 7.445e-4
0.395, 7.541e-5, 7.483e-4
0.400, 7.203e-5, 7.519e-4
0.405, 6.860e-5, 7.553e-4
0.410, 6.531e-5, 7.586e-4
0.415, 6.203e-5, 7.617e-4
0.420, 5.882e-5, 7.646e-4
0.425, 5.568e-5, 7.674e-4
0.430, 5.255e-5, 7.700e-4
0.435, 4.955e-5, 7.725e-4
0.440, 4.662e-5, 7.748e-4
0.445, 4.373e-5, 7.770e-4
0.450, 4.093e-5, 7.791e-4
0.455, 3.814e-5, 7.810e-4
0.460, 3.547e-5, 7.827e-4
0.465, 3.291e-5, 7.844e-4
0.470, 3.041e-5, 7.859e-4
0.475, 2.798e-5, 7.873e-4
0.480, 2.570e-5, 7.886e-4
0.485, 2.346e-5, 7.898e-4
0.490, 2.127e-5, 7.908e-4
0.495, 1.918e-5, 7.918e-4
0.500, 1.722e-5, 7.927e-4
0.505, 1.527e-5, 7.934e-4
0.510, 1.342e-5, 7.941e-4
0.515, 1.163e-5, 7.947e-4
0.520, 9.932e-6, 7.952e-4
0.525, 8.299e-6, 7.956e-4
0.530, 6.680e-6, 7.959e-4
0.535, 5.219e-6, 7.962e-4
0.540, 3.840e-6, 7.964e-4
0.545, 2.522e-6, 7.965e-4
0.550, 1.310e-6, 7.966e-4
0.555, 1.480e-7, 7.966e-4
0.560, -9.377e-7, 7.965e-4
0.565, -1.968e-6, 7.964e-4
0.570, -2.927e-6, 7.963e-4
0.575, -3.857e-6, 7.961e-4
0.580, -4.724e-6, 7.958e-4
0.585, -5.563e-6, 7.956e-4
0.590, -6.339e-6, 7.953e-4
0.595, -7.091e-6, 7.949e-4
0.600, -7.806e-6, 7.945e-4
0.605, -8.551e-6, 7.941e-4
0.610, -9.214e-6, 7.936e-4
0.615, -9.770e-6, 7.931e-4
0.620, -1.040e-5, 7.926e-4
0.625, -1.097e-5, 7.921e-4
0.630, -1.154e-5, 7.915e-4
0.635, -1.206e-5, 7.909e-4
0.640, -1.259e-5, 7.903e-4
0.645, -1.308e-5, 7.896e-4
0.650, -1.356e-5, 7.889e-4
0.655, -1.400e-5, 7.882e-4
0.660, -1.445e-5, 7.875e-4
0.665, -1.490e-5, 7.868e-4
0.670, -1.531e-5, 7.860e-4
0.675, -1.571e-5, 7.852e-4
0.680, -1.611e-5, 7.844e-4
0.685, -1.650e-5, 7.836e-4
0.690, -1.684e-5, 7.827e-4
0.695, -1.724e-5, 7.819e-4
0.700, -1.758e-5, 7.810e-4
0.705, -1.792e-5, 7.801e-4
0.710, -1.827e-5, 7.792e-4
0.715, -1.864e-5, 7.782e-4
0.720, -1.897e-5, 7.773e-4
0.725, -1.931e-5, 7.763e-4
0.730, -1.959e-5, 7.754e-4
0.735, -1.992e-5, 7.744e-4
0.740, -2.024e-5, 7.733e-4
0.745, -2.055e-5, 7.723e-4
0.750, -2.085e-5, 7.713e-4
0.755, -2.118e-5, 7.702e-4
0.760, -2.147e-5, 7.691e-4
0.765, -2.178e-5, 7.681e-4
0.770, -2.211e-5, 7.669e-4
0.775, -2.241e-5, 7.658e-4
0.780, -2.270e-5, 7.647e-4
0.785, -2.302e-5, 7.635e-4
0.790, -2.333e-5, 7.624e-4
0.795, -2.364e-5, 7.612e-4
0.800, -2.402e-5, 7.600e-4
0.805, -2.436e-5, 7.588e-4
0.810, -2.467e-5, 7.575e-4
0.815, -2.504e-5, 7.563e-4
0.820, -2.533e-5, 7.550e-4
0.825, -2.566e-5, 7.537e-4
0.830, -2.602e-5, 7.524e-4
0.835, -2.637e-5, 7.511e-4
0.840, -2.673e-5, 7.498e-4
0.845, -2.707e-5, 7.484e-4
0.850, -2.740e-5, 7.471e-4
0.855, -2.777e-5, 7.457e-4
0.860, -2.812e-5, 7.443e-4
0.865, -2.846e-5, 7.428e-4
0.870, -2.886e-5, 7.414e-4
0.875, -2.920e-5, 7.399e-4
0.880, -2.953e-5, 7.385e-4
0.885, -2.991e-5, 7.370e-4
0.890, -3.023e-5, 7.355e-4
0.895, -3.055e-5, 7.339e-4
0.900, -3.091e-5, 7.324e-4
0.905, -3.123e-5, 7.308e-4
0.910, -3.154e-5, 7.292e-4
0.915, -3.194e-5, 7.276e-4
0.920, -3.225e-5, 7.260e-4
0.925, -3.255e-5, 7.244e-4
0.930, -3.286e-5, 7.228e-4
0.935, -3.313e-5, 7.211e-4
0.940, -3.339e-5, 7.194e-4
0.945, -3.367e-5, 7.178e-4
0.950, -3.392e-5, 7.161e-4
0.955, -3.417e-5, 7.143e-4
0.960, -3.439e-5, 7.126e-4
0.965, -3.465e-5, 7.109e-4
0.970, -3.488e-5, 7.091e-4
0.975, -3.511e-5, 7.074e-4
0.980, -3.530e-5, 7.056e-4
0.985, -3.552e-5, 7.039e-4
0.990, -3.573e-5, 7.021e-4
0.995, -3.593e-5, 7.003e-4
1.000, -3.611e-5, 6.985e-4
1.005, -3.628e-5, 6.967e-4
1.010, -3.647e-5, 6.948e-4
1.015, -3.668e-5, 6.930e-4
1.020, -3.687e-5, 6.912e-4
1.025, -3.696e-5, 6.893e-4
1.030, -3.714e-5, 6.874e-4
1.035, -3.732e-5, 6.856e-4
1.040, -3.749e-5, 6.837e-4
1.045, -3.767e-5, 6.818e-4
1.050, -3.783e-5, 6.799e-4
1.055, -3.799e-5, 6.780e-4
1.060, -3.816e-5, 6.761e-4
1.065, -3.834e-5, 6.742e-4
1.070, -3.850e-5, 6.723e-4
1.075, -3.869e-5, 6.703e-4
1.080, -3.886e-5, 6.684e-4
1.085, -3.904e-5, 6.665e-4
1.090, -3.920e-5, 6.645e-4
1.095, -3.940e-5, 6.625e-4

Segment 2:
1.100, -3.520e-5, 6.608e-4
1.095, -2.834e-5, 6.593e-4
1.090, -2.360e-5, 6.582e-4
1.085, -1.991e-5, 6.572e-4
1.080, -1.699e-5, 6.563e-4
1.075, -1.459e-5, 6.556e-4
1.070, -1.261e-5, 6.550e-4
1.065, -1.098e-5, 6.544e-4
1.060, -9.569e-6, 6.539e-4
1.055, -8.340e-6, 6.535e-4
1.050, -7.276e-6, 6.531e-4
1.045, -6.391e-6, 6.528e-4
1.040, -5.616e-6, 6.525e-4
1.035, -4.924e-6, 6.523e-4
1.030, -4.323e-6, 6.521e-4
1.025, -3.819e-6, 6.519e-4
1.020, -3.316e-6, 6.517e-4
1.015, -2.888e-6, 6.516e-4
1.010, -2.506e-6, 6.515e-4
1.005, -2.153e-6, 6.514e-4
1.000, -1.857e-6, 6.513e-4
0.995, -1.580e-6, 6.512e-4
0.990, -1.300e-6, 6.511e-4
0.985, -1.064e-6, 6.511e-4
0.980, -8.468e-7, 6.510e-4
0.975, -6.458e-7, 6.510e-4
0.970, -4.551e-7, 6.510e-4
0.965, -2.709e-7, 6.510e-4
0.960, -1.063e-7, 6.509e-4
0.955, 2.518e-8, 6.509e-4
0.950, 1.716e-7, 6.510e-4
0.945, 2.940e-7, 6.510e-4
0.940, 4.328e-7, 6.510e-4
0.935, 5.627e-7, 6.510e-4
0.930, 7.049e-7, 6.511e-4
0.925, 8.277e-7, 6.511e-4
0.920, 9.286e-7, 6.511e-4
0.915, 1.024e-6, 6.512e-4
0.910, 1.149e-6, 6.513e-4
0.905, 1.230e-6, 6.513e-4
0.900, 1.367e-6, 6.514e-4
0.895, 1.433e-6, 6.515e-4
0.890, 1.548e-6, 6.515e-4
0.885, 1.640e-6, 6.516e-4
0.880, 1.747e-6, 6.517e-4
0.875, 1.840e-6, 6.518e-4
0.870, 1.933e-6, 6.519e-4
0.865, 2.018e-6, 6.520e-4
0.860, 2.135e-6, 6.521e-4
0.855, 2.205e-6, 6.522e-4
0.850, 2.324e-6, 6.523e-4
0.845, 2.402e-6, 6.524e-4
0.840, 2.517e-6, 6.526e-4
0.835, 2.613e-6, 6.527e-4
0.830, 2.730e-6, 6.528e-4
0.825, 2.828e-6, 6.530e-4
0.820, 2.909e-6, 6.531e-4
0.815, 3.022e-6, 6.533e-4
0.810, 3.145e-6, 6.534e-4
0.805, 3.255e-6, 6.536e-4
0.800, 3.375e-6, 6.538e-4
0.795, 3.475e-6, 6.539e-4
0.790, 3.621e-6, 6.541e-4
0.785, 3.745e-6, 6.543e-4
0.780, 3.856e-6, 6.545e-4
0.775, 3.990e-6, 6.547e-4
0.770, 4.143e-6, 6.549e-4
0.765, 4.271e-6, 6.551e-4
0.760, 4.413e-6, 6.553e-4
0.755, 4.555e-6, 6.556e-4
0.750, 4.728e-6, 6.558e-4
0.745, 4.848e-6, 6.560e-4
0.740, 5.042e-6, 6.563e-4
0.735, 5.204e-6, 6.566e-4
0.730, 5.376e-6, 6.568e-4
0.725, 5.558e-6, 6.571e-4
0.720, 5.763e-6, 6.574e-4
0.715, 5.953e-6, 6.577e-4
0.710, 6.148e-6, 6.580e-4
0.705, 6.354e-6, 6.583e-4
0.700, 6.598e-6, 6.586e-4
0.695, 6.801e-6, 6.590e-4
0.690, 7.071e-6, 6.593e-4
0.685, 7.368e-6, 6.597e-4
0.680, 7.672e-6, 6.601e-4
0.675, 7.926e-6, 6.605e-4
0.670, 8.233e-6, 6.609e-4
0.665, 8.524e-6, 6.613e-4
0.660, 8.833e-6, 6.618e-4
0.655, 9.149e-6, 6.622e-4
0.650, 9.508e-6, 6.627e-4
0.645, 9.842e-6, 6.632e-4
0.640, 1.023e-5, 6.637e-4
0.635, 1.061e-5, 6.642e-4
0.630, 1.103e-5, 6.648e-4
0.625, 1.145e-5, 6.654e-4
0.620, 1.192e-5, 6.660e-4
0.615, 1.232e-5, 6.666e-4
0.610, 1.286e-5, 6.672e-4
0.605, 1.338e-5, 6.679e-4
0.600, 1.395e-5, 6.686e-4
0.595, 1.451e-5, 6.693e-4
0.590, 1.514e-5, 6.701e-4
0.585, 1.581e-5, 6.709e-4
0.580, 1.651e-5, 6.717e-4
0.575, 1.721e-5, 6.725e-4
0.570, 1.800e-5, 6.734e-4
0.565, 1.881e-5, 6.744e-4
0.560, 1.968e-5, 6.754e-4
0.555, 2.058e-5, 6.764e-4
0.550, 2.153e-5, 6.775e-4
0.545, 2.256e-5, 6.786e-4
0.540, 2.371e-5, 6.798e-4
0.535, 2.483e-5, 6.810e-4
0.530, 2.603e-5, 6.823e-4
0.525, 2.731e-5, 6.837e-4
0.520, 2.869e-5, 6.851e-4
0.515, 3.016e-5, 6.866e-4
0.510, 3.180e-5, 6.882e-4
0.505, 3.343e-5, 6.899e-4
0.500, 3.522e-5, 6.917e-4
0.495, 3.710e-5, 6.935e-4
0.490, 3.925e-5, 6.955e-4
0.485, 4.142e-5, 6.975e-4
0.480, 4.383e-5, 6.997e-4
0.475, 4.639e-5, 7.021e-4
0.470, 4.917e-5, 7.045e-4
0.465, 5.215e-5, 7.071e-4
0.460, 5.550e-5, 7.099e-4
0.455, 5.893e-5, 7.128e-4
0.450, 6.271e-5, 7.160e-4
0.445, 6.666e-5, 7.193e-4
0.440, 7.099e-5, 7.229e-4
0.435, 7.547e-5, 7.266e-4
0.430, 8.023e-5, 7.306e-4
0.425, 8.523e-5, 7.349e-4
0.420, 9.051e-5, 7.394e-4
0.415, 9.603e-5, 7.442e-4
0.410, 1.018e-4, 7.493e-4
0.405, 1.076e-4, 7.547e-4
0.400, 1.136e-4, 7.604e-4
0.395, 1.198e-4, 7.664e-4
0.390, 1.262e-4, 7.727e-4
0.385, 1.325e-4, 7.793e-4
0.380, 1.389e-4, 7.863e-4
0.375, 1.452e-4, 7.935e-4
0.370, 1.516e-4, 8.011e-4
0.365, 1.579e-4, 8.090e-4
0.360, 1.640e-4, 8.172e-4
0.355, 1.700e-4, 8.257e-4
0.350, 1.758e-4, 8.345e-4
0.345, 1.814e-4, 8.435e-4
0.340, 1.867e-4, 8.529e-4
0.335, 1.918e-4, 8.625e-4
0.330, 1.966e-4, 8.723e-4
0.325, 2.010e-4, 8.824e-4
0.320, 2.052e-4, 8.926e-4
0.315, 2.090e-4, 9.031e-4
0.310, 2.127e-4, 9.137e-4
0.305, 2.160e-4, 9.245e-4
0.300, 2.191e-4, 9.355e-4
0.295, 2.217e-4, 9.465e-4
0.290, 2.241e-4, 9.577e-4
0.285, 2.264e-4, 9.691e-4
0.280, 2.283e-4, 9.805e-4
0.275, 2.299e-4, 9.920e-4
0.270, 2.312e-4, 1.004e-3
0.265, 2.322e-4, 1.015e-3
0.260, 2.332e-4, 1.027e-3
0.255, 2.339e-4, 1.039e-3
0.250, 2.344e-4, 1.050e-3
0.245, 2.347e-4, 1.062e-3
0.240, 2.348e-4, 1.074e-3
0.235, 2.349e-4, 1.085e-3
0.230, 2.350e-4, 1.097e-3
0.225, 2.348e-4, 1.109e-3
0.220, 2.345e-4, 1.121e-3
0.215, 2.342e-4, 1.132e-3
0.210, 2.337e-4, 1.144e-3
0.205, 2.329e-4, 1.156e-3
0.200, 2.321e-4, 1.167e-3
0.195, 2.312e-4, 1.179e-3
0.190, 2.303e-4, 1.190e-3
0.185, 2.295e-4, 1.202e-3
0.180, 2.285e-4, 1.213e-3
0.175, 2.273e-4, 1.225e-3
0.170, 2.261e-4, 1.236e-3
0.165, 2.248e-4, 1.247e-3
0.160, 2.236e-4, 1.258e-3
0.155, 2.223e-4, 1.270e-3
0.150, 2.209e-4, 1.281e-3
0.145, 2.197e-4, 1.292e-3
0.140, 2.187e-4, 1.302e-3
0.135, 2.177e-4, 1.313e-3
0.130, 2.167e-4, 1.324e-3
0.125, 2.157e-4, 1.335e-3
0.120, 2.148e-4, 1.346e-3
0.115, 2.138e-4, 1.356e-3
0.110, 2.127e-4, 1.367e-3
0.105, 2.115e-4, 1.378e-3
0.100, 2.104e-4, 1.388e-3
0.095, 2.097e-4, 1.399e-3
0.090, 2.091e-4, 1.409e-3
0.085, 2.083e-4, 1.419e-3
0.080, 2.075e-4, 1.430e-3
0.075, 2.070e-4, 1.440e-3
0.070, 2.067e-4, 1.451e-3
0.065, 2.066e-4, 1.461e-3
0.060, 2.065e-4, 1.471e-3
0.055, 2.063e-4, 1.482e-3
0.050, 2.062e-4, 1.492e-3
0.045, 2.064e-4, 1.502e-3
0.040, 2.065e-4, 1.512e-3
0.035, 2.066e-4, 1.523e-3
0.030, 2.066e-4, 1.533e-3
0.025, 2.065e-4, 1.543e-3
0.020, 2.067e-4, 1.554e-3
0.015, 2.070e-4, 1.564e-3
0.010, 2.070e-4, 1.574e-3
0.005, 2.068e-4, 1.585e-3
0.000, 2.066e-4, 1.595e-3
-0.005, 2.067e-4, 1.605e-3
-0.010, 2.067e-4, 1.616e-3
-0.015, 2.068e-4, 1.626e-3
-0.020, 2.070e-4, 1.637e-3
-0.025, 2.074e-4, 1.647e-3
-0.030, 2.078e-4, 1.657e-3
-0.035, 2.081e-4, 1.668e-3
-0.040, 2.082e-4, 1.678e-3
-0.045, 2.082e-4, 1.689e-3
-0.050, 2.082e-4, 1.699e-3
-0.055, 2.081e-4, 1.709e-3
-0.060, 2.080e-4, 1.720e-3
-0.065, 2.080e-4, 1.730e-3
-0.070, 2.082e-4, 1.741e-3
-0.075, 2.084e-4, 1.751e-3
-0.080, 2.088e-4, 1.761e-3
-0.085, 2.092e-4, 1.772e-3
-0.090, 2.097e-4, 1.782e-3
-0.095, 2.102e-4, 1.793e-3
-0.100, 2.110e-4, 1.803e-3
-0.105, 2.115e-4, 1.814e-3
-0.110, 2.120e-4, 1.825e-3
-0.115, 2.122e-4, 1.835e-3
-0.120, 2.121e-4, 1.846e-3
-0.125, 2.119e-4, 1.856e-3
-0.130, 2.116e-4, 1.867e-3
-0.135, 2.111e-4, 1.878e-3
-0.140, 2.105e-4, 1.888e-3
-0.145, 2.099e-4, 1.899e-3
-0.150, 2.092e-4, 1.909e-3
-0.155, 2.086e-4, 1.919e-3
-0.160, 2.083e-4, 1.930e-3
-0.165, 2.083e-4, 1.940e-3
-0.170, 2.086e-4, 1.951e-3
-0.175, 2.091e-4, 1.961e-3
-0.180, 2.097e-4, 1.972e-3
-0.185, 2.107e-4, 1.982e-3
-0.190, 2.118e-4, 1.993e-3
-0.195, 2.131e-4, 2.003e-3
-0.200, 2.147e-4, 2.014e-3
-0.205, 2.160e-4, 2.025e-3
-0.210, 2.180e-4, 2.036e-3
-0.215, 2.200e-4, 2.047e-3
-0.220, 2.220e-4, 2.058e-3
-0.225, 2.237e-4, 2.069e-3
-0.230, 2.257e-4, 2.080e-3
-0.235, 2.277e-4, 2.092e-3
-0.240, 2.292e-4, 2.103e-3
-0.245, 2.298e-4, 2.115e-3
-0.250, 2.300e-4, 2.126e-3
-0.255, 2.303e-4, 2.138e-3
-0.260, 2.301e-4, 2.149e-3
-0.265, 2.299e-4, 2.161e-3
-0.270, 2.301e-4, 2.172e-3
-0.275, 2.308e-4, 2.184e-3
-0.280, 2.319e-4, 2.195e-3
-0.285, 2.327e-4, 2.207e-3
-0.290, 2.337e-4, 2.219e-3
-0.295, 2.351e-4, 2.230e-3
-0.300, 2.142e-4, 2.241e-3

Segment 3:
-0.295, 1.920e-4, 2.251e-3
-0.290, 1.886e-4, 2.260e-3
-0.285, 1.885e-4, 2.270e-3
-0.280, 1.898e-4, 2.279e-3
-0.275, 1.916e-4, 2.289e-3
-0.270, 1.929e-4, 2.298e-3
-0.265, 1.929e-4, 2.308e-3
-0.260, 1.921e-4, 2.318e-3
-0.255, 1.909e-4, 2.327e-3
-0.250, 1.897e-4, 2.337e-3
-0.245, 1.881e-4, 2.346e-3
-0.240, 1.869e-4, 2.355e-3
-0.235, 1.862e-4, 2.365e-3
-0.230, 1.865e-4, 2.374e-3
-0.225, 1.874e-4, 2.383e-3
-0.220, 1.887e-4, 2.393e-3
-0.215, 1.900e-4, 2.402e-3
-0.210, 1.914e-4, 2.412e-3
-0.205, 1.926e-4, 2.422e-3
-0.200, 1.930e-4, 2.431e-3
-0.195, 1.935e-4, 2.441e-3
-0.190, 1.937e-4, 2.451e-3
-0.185, 1.937e-4, 2.460e-3
-0.180, 1.934e-4, 2.470e-3
-0.175, 1.926e-4, 2.480e-3
-0.170, 1.917e-4, 2.489e-3
-0.165, 1.905e-4, 2.499e-3
-0.160, 1.895e-4, 2.508e-3
-0.155, 1.884e-4, 2.518e-3
-0.150, 1.868e-4, 2.527e-3
-0.145, 1.851e-4, 2.536e-3
-0.140, 1.836e-4, 2.545e-3
-0.135, 1.824e-4, 2.554e-3
-0.130, 1.809e-4, 2.563e-3
-0.125, 1.796e-4, 2.572e-3
-0.120, 1.784e-4, 2.581e-3
-0.115, 1.770e-4, 2.590e-3
-0.110, 1.752e-4, 2.599e-3
-0.105, 1.740e-4, 2.608e-3
-0.100, 1.728e-4, 2.616e-3
-0.095, 1.708e-4, 2.625e-3
-0.090, 1.689e-4, 2.633e-3
-0.085, 1.673e-4, 2.642e-3
-0.080, 1.658e-4, 2.650e-3
-0.075, 1.648e-4, 2.658e-3
-0.070, 1.642e-4, 2.666e-3
-0.065, 1.644e-4, 2.675e-3
-0.060, 1.654e-4, 2.683e-3
-0.055, 1.669e-4, 2.691e-3
-0.050, 1.691e-4, 2.700e-3
-0.045, 1.719e-4, 2.708e-3
-0.040, 1.748e-4, 2.717e-3
-0.035, 1.778e-4, 2.726e-3
-0.030, 1.810e-4, 2.735e-3
-0.025, 1.843e-4, 2.744e-3
-0.020, 1.875e-4, 2.754e-3
-0.015, 1.905e-4, 2.763e-3
-0.010, 1.936e-4, 2.773e-3
-0.005, 1.969e-4, 2.783e-3
-0.000, 2.003e-4, 2.793e-3
0.005, 2.034e-4, 2.803e-3
0.010, 2.058e-4, 2.813e-3
0.015, 2.078e-4, 2.823e-3
0.020, 2.097e-4, 2.834e-3
0.025, 2.114e-4, 2.845e-3
0.030, 2.129e-4, 2.855e-3
0.035, 2.138e-4, 2.866e-3
0.040, 2.143e-4, 2.877e-3
0.045, 2.148e-4, 2.887e-3
0.050, 2.152e-4, 2.898e-3
0.055, 2.152e-4, 2.909e-3
0.060, 2.149e-4, 2.920e-3
0.065, 2.145e-4, 2.930e-3
0.070, 2.141e-4, 2.941e-3
0.075, 2.134e-4, 2.952e-3
0.080, 2.125e-4, 2.962e-3
0.085, 2.116e-4, 2.973e-3
0.090, 2.106e-4, 2.983e-3
0.095, 2.095e-4, 2.994e-3
0.100, 2.082e-4, 3.004e-3
0.105, 2.066e-4, 3.015e-3
0.110, 2.049e-4, 3.025e-3
0.115, 2.035e-4, 3.035e-3
0.120, 2.025e-4, 3.045e-3
0.125, 2.018e-4, 3.055e-3
0.130, 2.014e-4, 3.065e-3
0.135, 2.011e-4, 3.075e-3
0.140, 2.008e-4, 3.085e-3
0.145, 2.007e-4, 3.095e-3
0.150, 2.005e-4, 3.105e-3
0.155, 1.999e-4, 3.115e-3
0.160, 1.994e-4, 3.125e-3
0.165, 1.988e-4, 3.135e-3
0.170, 1.982e-4, 3.145e-3
0.175, 1.973e-4, 3.155e-3
0.180, 1.961e-4, 3.165e-3
0.185, 1.945e-4, 3.175e-3
0.190, 1.927e-4, 3.184e-3
0.195, 1.907e-4, 3.194e-3
0.200, 1.885e-4, 3.203e-3
0.205, 1.862e-4, 3.213e-3
0.210, 1.838e-4, 3.222e-3
0.215, 1.815e-4, 3.231e-3
0.220, 1.791e-4, 3.240e-3
0.225, 1.767e-4, 3.249e-3
0.230, 1.742e-4, 3.257e-3
0.235, 1.718e-4, 3.266e-3
0.240, 1.695e-4, 3.274e-3
0.245, 1.670e-4, 3.283e-3
0.250, 1.645e-4, 3.291e-3
0.255, 1.620e-4, 3.299e-3
0.260, 1.596e-4, 3.307e-3
0.265, 1.572e-4, 3.315e-3
0.270, 1.544e-4, 3.323e-3
0.275, 1.518e-4, 3.330e-3
0.280, 1.492e-4, 3.338e-3
0.285, 1.464e-4, 3.345e-3
0.290, 1.436e-4, 3.352e-3
0.295, 1.408e-4, 3.359e-3
0.300, 1.381e-4, 3.366e-3
0.305, 1.355e-4, 3.373e-3
0.310, 1.327e-4, 3.380e-3
0.315, 1.300e-4, 3.386e-3
0.320, 1.272e-4, 3.392e-3
0.325, 1.244e-4, 3.399e-3
0.330, 1.216e-4, 3.405e-3
0.335, 1.188e-4, 3.411e-3
0.340, 1.160e-4, 3.416e-3
0.345, 1.133e-4, 3.422e-3
0.350, 1.106e-4, 3.428e-3
0.355, 1.078e-4, 3.433e-3
0.360, 1.050e-4, 3.438e-3
0.365, 1.022e-4, 3.443e-3
0.370, 9.931e-5, 3.448e-3
0.375, 9.641e-5, 3.453e-3
0.380, 9.339e-5, 3.458e-3
0.385, 9.038e-5, 3.462e-3
0.390, 8.737e-5, 3.467e-3
0.395, 8.426e-5, 3.471e-3
0.400, 8.120e-5, 3.475e-3
0.405, 7.807e-5, 3.479e-3
0.410, 7.495e-5, 3.483e-3
0.415, 7.199e-5, 3.486e-3
0.420, 6.890e-5, 3.490e-3
0.425, 6.580e-5, 3.493e-3
0.430, 6.266e-5, 3.496e-3
0.435, 5.960e-5, 3.499e-3
0.440, 5.662e-5, 3.502e-3
0.445, 5.362e-5, 3.505e-3
0.450, 5.063e-5, 3.507e-3
0.455, 4.774e-5, 3.510e-3
0.460, 4.484e-5, 3.512e-3
0.465, 4.208e-5, 3.514e-3
0.470, 3.930e-5, 3.516e-3
0.475, 3.652e-5, 3.518e-3
0.480, 3.387e-5, 3.519e-3
0.485, 3.132e-5, 3.521e-3
0.490, 2.872e-5, 3.522e-3
0.495, 2.628e-5, 3.524e-3
0.500, 2.385e-5, 3.525e-3
0.505, 2.144e-5, 3.526e-3
0.510, 1.912e-5, 3.527e-3
0.515, 1.689e-5, 3.528e-3
0.520, 1.471e-5, 3.529e-3
0.525, 1.262e-5, 3.529e-3
0.530, 1.057e-5, 3.530e-3
0.535, 8.637e-6, 3.530e-3
0.540, 6.663e-6, 3.530e-3
0.545, 4.861e-6, 3.531e-3
0.550, 3.175e-6, 3.531e-3
0.555, 1.531e-6, 3.531e-3
0.560, -3.315e-8, 3.531e-3
0.565, -1.502e-6, 3.531e-3
0.570, -2.890e-6, 3.531e-3
0.575, -4.204e-6, 3.530e-3
0.580, -5.458e-6, 3.530e-3
0.585, -6.623e-6, 3.530e-3
0.590, -7.717e-6, 3.529e-3
0.595, -8.807e-6, 3.529e-3
0.600, -9.763e-6, 3.529e-3
0.605, -1.066e-5, 3.528e-3
0.610, -1.151e-5, 3.527e-3
0.615, -1.221e-5, 3.527e-3
0.620, -1.296e-5, 3.526e-3
0.625, -1.364e-5, 3.526e-3
0.630, -1.430e-5, 3.525e-3
0.635, -1.485e-5, 3.524e-3
0.640, -1.540e-5, 3.523e-3
0.645, -1.592e-5, 3.522e-3
0.650, -1.641e-5, 3.522e-3
0.655, -1.685e-5, 3.521e-3
0.660, -1.729e-5, 3.520e-3
0.665, -1.769e-5, 3.519e-3
0.670, -1.807e-5, 3.518e-3
0.675, -1.842e-5, 3.517e-3
0.680, -1.876e-5, 3.516e-3
0.685, -1.909e-5, 3.515e-3
0.690, -1.940e-5, 3.514e-3
0.695, -1.969e-5, 3.513e-3
0.700, -2.000e-5, 3.512e-3
0.705, -2.028e-5, 3.511e-3
0.710, -2.057e-5, 3.510e-3
0.715, -2.088e-5, 3.509e-3
0.720, -2.115e-5, 3.508e-3
0.725, -2.141e-5, 3.507e-3
0.730, -2.166e-5, 3.506e-3
0.735, -2.193e-5, 3.505e-3
0.740, -2.219e-5, 3.504e-3
0.745, -2.243e-5, 3.503e-3
0.750, -2.270e-5, 3.502e-3
0.755, -2.296e-5, 3.501e-3
0.760, -2.322e-5, 3.499e-3
0.765, -2.347e-5, 3.498e-3
0.770, -2.377e-5, 3.497e-3
0.775, -2.406e-5, 3.496e-3
0.780, -2.434e-5, 3.495e-3
0.785, -2.457e-5, 3.493e-3
0.790, -2.488e-5, 3.492e-3
0.795, -2.513e-5, 3.491e-3
0.800, -2.540e-5, 3.490e-3
0.805, -2.567e-5, 3.488e-3
0.810, -2.598e-5, 3.487e-3
0.815, -2.625e-5, 3.486e-3
0.820, -2.649e-5, 3.484e-3
0.825, -2.680e-5, 3.483e-3
0.830, -2.711e-5, 3.482e-3
0.835, -2.738e-5, 3.480e-3
0.840, -2.768e-5, 3.479e-3
0.845, -2.798e-5, 3.477e-3
0.850, -2.829e-5, 3.476e-3
0.855, -2.858e-5, 3.475e-3
0.860, -2.890e-5, 3.473e-3
0.865, -2.919e-5, 3.472e-3
0.870, -2.950e-5, 3.470e-3
0.875, -2.980e-5, 3.469e-3
0.880, -3.009e-5, 3.467e-3
0.885, -3.037e-5, 3.466e-3
0.890, -3.068e-5, 3.464e-3
0.895, -3.095e-5, 3.463e-3
0.900, -3.123e-5, 3.461e-3
0.905, -3.149e-5, 3.460e-3
0.910, -3.183e-5, 3.458e-3
0.915, -3.211e-5, 3.456e-3
0.920, -3.238e-5, 3.455e-3
0.925, -3.264e-5, 3.453e-3
0.930, -3.289e-5, 3.451e-3
0.935, -3.310e-5, 3.450e-3
0.940, -3.332e-5, 3.448e-3
0.945, -3.354e-5, 3.446e-3
0.950, -3.375e-5, 3.445e-3
0.955, -3.395e-5, 3.443e-3
0.960, -3.416e-5, 3.441e-3
0.965, -3.433e-5, 3.440e-3
0.970, -3.454e-5, 3.438e-3
0.975, -3.475e-5, 3.436e-3
0.980, -3.492e-5, 3.434e-3
0.985, -3.508e-5, 3.433e-3
0.990, -3.524e-5, 3.431e-3
0.995, -3.540e-5, 3.429e-3
1.000, -3.557e-5, 3.427e-3
1.005, -3.572e-5, 3.426e-3
1.010, -3.589e-5, 3.424e-3
1.015, -3.602e-5, 3.422e-3
1.020, -3.618e-5, 3.420e-3
1.025, -3.624e-5, 3.418e-3
1.030, -3.642e-5, 3.417e-3
1.035, -3.656e-5, 3.415e-3
1.040, -3.671e-5, 3.413e-3
1.045, -3.686e-5, 3.411e-3
1.050, -3.697e-5, 3.409e-3
1.055, -3.713e-5, 3.407e-3
1.060, -3.726e-5, 3.405e-3
1.065, -3.740e-5, 3.404e-3
1.070, -3.755e-5, 3.402e-3
1.075, -3.771e-5, 3.400e-3
1.080, -3.787e-5, 3.398e-3
1.085, -3.799e-5, 3.396e-3
1.090, -3.815e-5, 3.394e-3
1.095, -3.829e-5, 3.392e-3
1.100, -3.397e-5, 3.391e-3

Segment 4:
1.095, -2.717e-5, 3.389e-3
1.090, -2.251e-5, 3.388e-3
1.085, -1.894e-5, 3.387e-3
1.080, -1.610e-5, 3.386e-3
1.075, -1.378e-5, 3.386e-3
1.070, -1.189e-5, 3.385e-3
1.065, -1.030e-5, 3.384e-3
1.060, -8.946e-6, 3.384e-3
1.055, -7.733e-6, 3.384e-3
1.050, -6.762e-6, 3.383e-3
1.045, -5.891e-6, 3.383e-3
1.040, -5.142e-6, 3.383e-3
1.035, -4.494e-6, 3.383e-3
1.030, -3.913e-6, 3.382e-3
1.025, -3.446e-6, 3.382e-3
1.020, -2.964e-6, 3.382e-3
1.015, -2.559e-6, 3.382e-3
1.010, -2.189e-6, 3.382e-3
1.005, -1.858e-6, 3.382e-3
1.000, -1.582e-6, 3.382e-3
0.995, -1.284e-6, 3.382e-3
0.990, -1.045e-6, 3.381e-3
0.985, -8.172e-7, 3.381e-3
0.980, -6.201e-7, 3.381e-3
0.975, -4.070e-7, 3.381e-3
0.970, -2.254e-7, 3.381e-3
0.965, -7.268e-8, 3.381e-3
0.960, 8.422e-8, 3.381e-3
0.955, 2.227e-7, 3.381e-3
0.950, 3.531e-7, 3.381e-3
0.945, 4.889e-7, 3.381e-3
0.940, 6.256e-7, 3.381e-3
0.935, 7.562e-7, 3.382e-3
0.930, 8.746e-7, 3.382e-3
0.925, 9.802e-7, 3.382e-3
0.920, 1.087e-6, 3.382e-3
0.915, 1.191e-6, 3.382e-3
0.910, 1.295e-6, 3.382e-3
0.905, 1.403e-6, 3.382e-3
0.900, 1.474e-6, 3.382e-3
0.895, 1.596e-6, 3.382e-3
0.890, 1.667e-6, 3.382e-3
0.885, 1.789e-6, 3.382e-3
0.880, 1.872e-6, 3.382e-3
0.875, 1.960e-6, 3.382e-3
0.870, 2.069e-6, 3.382e-3
0.865, 2.151e-6, 3.383e-3
0.860, 2.227e-6, 3.383e-3
0.855, 2.351e-6, 3.383e-3
0.850, 2.422e-6, 3.383e-3
0.845, 2.531e-6, 3.383e-3
0.840, 2.626e-6, 3.383e-3
0.835, 2.737e-6, 3.383e-3
0.830, 2.835e-6, 3.383e-3
0.825, 2.925e-6, 3.384e-3
0.820, 3.030e-6, 3.384e-3
0.815, 3.141e-6, 3.384e-3
0.810, 3.254e-6, 3.384e-3
0.805, 3.370e-6, 3.384e-3
0.800, 3.476e-6, 3.384e-3
0.795, 3.608e-6, 3.385e-3
0.790, 3.721e-6, 3.385e-3
0.785, 3.845e-6, 3.385e-3
0.780, 3.970e-6, 3.385e-3
0.775, 4.112e-6, 3.385e-3
0.770, 4.244e-6, 3.386e-3
0.765, 4.378e-6, 3.386e-3
0.760, 4.519e-6, 3.386e-3
0.755, 4.681e-6, 3.386e-3
0.750, 4.822e-6, 3.387e-3
0.745, 4.998e-6, 3.387e-3
0.740, 5.145e-6, 3.387e-3
0.735, 5.333e-6, 3.387e-3
0.730, 5.497e-6, 3.388e-3
0.725, 5.695e-6, 3.388e-3
0.720, 5.888e-6, 3.388e-3
0.715, 6.095e-6, 3.388e-3
0.710, 6.282e-6, 3.389e-3
0.705, 6.514e-6, 3.389e-3
0.700, 6.733e-6, 3.389e-3
0.695, 6.980e-6, 3.390e-3
0.690, 7.247e-6, 3.390e-3
0.685, 7.568e-6, 3.391e-3
0.680, 7.831e-6, 3.391e-3
0.675, 8.135e-6, 3.391e-3
0.670, 8.404e-6, 3.392e-3
0.665, 8.742e-6, 3.392e-3
0.660, 9.060e-6, 3.393e-3
0.655, 9.394e-6, 3.393e-3
0.650, 9.738e-6, 3.394e-3
0.645, 1.012e-5, 3.394e-3
0.640, 1.050e-5, 3.395e-3
0.635, 1.092e-5, 3.395e-3
0.630, 1.134e-5, 3.396e-3
0.625, 1.181e-5, 3.396e-3
0.620, 1.228e-5, 3.397e-3
0.615, 1.273e-5, 3.398e-3
0.610, 1.329e-5, 3.398e-3
0.605, 1.387e-5, 3.399e-3
0.600, 1.446e-5, 3.400e-3
0.595, 1.511e-5, 3.400e-3
0.590, 1.577e-5, 3.401e-3
0.585, 1.649e-5, 3.402e-3
0.580, 1.724e-5, 3.403e-3
0.575, 1.804e-5, 3.404e-3
0.570, 1.884e-5, 3.405e-3
0.565, 1.977e-5, 3.406e-3
0.560, 2.070e-5, 3.407e-3
0.555, 2.170e-5, 3.408e-3
0.550, 2.278e-5, 3.409e-3
0.545, 2.398e-5, 3.410e-3
0.540, 2.516e-5, 3.411e-3
0.535, 2.645e-5, 3.413e-3
0.530, 2.779e-5, 3.414e-3
0.525, 2.925e-5, 3.416e-3
0.520, 3.086e-5, 3.417e-3
0.515, 3.257e-5, 3.419e-3
0.510, 3.435e-5, 3.420e-3
0.505, 3.626e-5, 3.422e-3
0.500, 3.832e-5, 3.424e-3
0.495, 4.058e-5, 3.426e-3
0.490, 4.296e-5, 3.428e-3
0.485, 4.553e-5, 3.431e-3
0.480, 4.833e-5, 3.433e-3
0.475, 5.138e-5, 3.436e-3
0.470, 5.470e-5, 3.438e-3
0.465, 5.831e-5, 3.441e-3
0.460, 6.220e-5, 3.444e-3
0.455, 6.639e-5, 3.448e-3
0.450, 7.093e-5, 3.451e-3
0.445, 7.575e-5, 3.455e-3
0.440, 8.088e-5, 3.459e-3
0.435, 8.634e-5, 3.463e-3
0.430, 9.213e-5, 3.468e-3
0.425, 9.821e-5, 3.473e-3
0.420, 1.046e-4, 3.478e-3
0.415, 1.112e-4, 3.484e-3
0.410, 1.180e-4, 3.490e-3
0.405, 1.250e-4, 3.496e-3
0.400, 1.321e-4, 3.503e-3
0.395, 1.393e-4, 3.509e-3
0.390, 1.464e-4, 3.517e-3
0.385, 1.535e-4, 3.524e-3
0.380, 1.606e-4, 3.532e-3
0.375, 1.675e-4, 3.541e-3
0.370, 1.741e-4, 3.550e-3
0.365, 1.806e-4, 3.559e-3
0.360, 1.869e-4, 3.568e-3
0.355, 1.929e-4, 3.578e-3
0.350, 1.985e-4, 3.588e-3
0.345, 2.037e-4, 3.598e-3
0.340, 2.084e-4, 3.608e-3
0.335, 2.129e-4, 3.619e-3
0.330, 2.168e-4, 3.630e-3
0.325, 2.204e-4, 3.641e-3
0.320, 2.234e-4, 3.652e-3
0.315, 2.261e-4, 3.663e-3
0.310, 2.284e-4, 3.675e-3
0.305, 2.304e-4, 3.686e-3
0.300, 2.318e-4, 3.698e-3
0.295, 2.330e-4, 3.709e-3
0.290, 2.338e-4, 3.721e-3
0.285, 2.343e-4, 3.733e-3
0.280, 2.345e-4, 3.744e-3
0.275, 2.343e-4, 3.756e-3
0.270, 2.339e-4, 3.768e-3
0.265, 2.333e-4, 3.779e-3
0.260, 2.324e-4, 3.791e-3
0.255, 2.313e-4, 3.803e-3
0.250, 2.301e-4, 3.814e-3
0.245, 2.289e-4, 3.826e-3
0.240, 2.276e-4, 3.837e-3
0.235, 2.263e-4, 3.848e-3
0.230, 2.247e-4, 3.860e-3
0.225, 2.231e-4, 3.871e-3
0.220, 2.216e-4, 3.882e-3
0.215, 2.201e-4, 3.893e-3
0.210, 2.184e-4, 3.904e-3
0.205, 2.166e-4, 3.915e-3
0.200, 2.149e-4, 3.925e-3
0.195, 2.134e-4, 3.936e-3
0.190, 2.121e-4, 3.947e-3
0.185, 2.109e-4, 3.957e-3
0.180, 2.095e-4, 3.968e-3
0.175, 2.085e-4, 3.978e-3
0.170, 2.079e-4, 3.988e-3
0.165, 2.077e-4, 3.999e-3
0.160, 2.075e-4, 4.009e-3
0.155, 2.075e-4, 4.020e-3
0.150, 2.077e-4, 4.030e-3
0.145, 2.083e-4, 4.040e-3
0.140, 2.091e-4, 4.051e-3
0.135, 2.101e-4, 4.061e-3
0.130, 2.112e-4, 4.072e-3
0.125, 2.124e-4, 4.082e-3
0.120, 2.138e-4, 4.093e-3
0.115, 2.151e-4, 4.104e-3
0.110, 2.157e-4, 4.115e-3
0.105, 2.157e-4, 4.125e-3
0.100, 2.152e-4, 4.136e-3
0.095, 2.145e-4, 4.147e-3
0.090, 2.137e-4, 4.158e-3
0.085, 2.128e-4, 4.168e-3
0.080, 2.119e-4, 4.179e-3
0.075, 2.112e-4, 4.189e-3
0.070, 2.105e-4, 4.200e-3
0.065, 2.098e-4, 4.210e-3
0.060, 2.091e-4, 4.221e-3
0.055, 2.084e-4, 4.231e-3
0.050, 2.080e-4, 4.242e-3
0.045, 2.079e-4, 4.252e-3
0.040, 2.078e-4, 4.263e-3
0.035, 2.077e-4, 4.273e-3
0.030, 2.080e-4, 4.283e-3
0.025, 2.083e-4, 4.294e-3
0.020, 2.084e-4, 4.304e-3
0.015, 2.083e-4, 4.315e-3
0.010, 2.083e-4, 4.325e-3
0.005, 2.087e-4, 4.335e-3
0.000, 2.095e-4, 4.346e-3
-0.005, 2.105e-4, 4.356e-3
-0.010, 2.117e-4, 4.367e-3
-0.015, 2.135e-4, 4.378e-3
-0.020, 2.155e-4, 4.388e-3
-0.025, 2.177e-4, 4.399e-3
-0.030, 2.201e-4, 4.410e-3
-0.035, 2.226e-4, 4.421e-3
-0.040, 2.252e-4, 4.433e-3
-0.045, 2.277e-4, 4.444e-3
-0.050, 2.300e-4, 4.456e-3
-0.055, 2.319e-4, 4.467e-3
-0.060, 2.334e-4, 4.479e-3
-0.065, 2.343e-4, 4.491e-3
-0.070, 2.351e-4, 4.502e-3
-0.075, 2.360e-4, 4.514e-3
-0.080, 2.367e-4, 4.526e-3
-0.085, 2.372e-4, 4.538e-3
-0.090, 2.377e-4, 4.550e-3
-0.095, 2.385e-4, 4.562e-3
-0.100, 2.396e-4, 4.574e-3
-0.105, 2.403e-4, 4.586e-3
-0.110, 2.412e-4, 4.598e-3
-0.115, 2.422e-4, 4.610e-3
-0.120, 2.428e-4, 4.622e-3
-0.125, 2.429e-4, 4.634e-3
-0.130, 2.429e-4, 4.646e-3
-0.135, 2.427e-4, 4.658e-3
-0.140, 2.426e-4, 4.671e-3
-0.145, 2.425e-4, 4.683e-3
-0.150, 2.427e-4, 4.695e-3
-0.155, 2.430e-4, 4.707e-3
-0.160, 2.437e-4, 4.719e-3
-0.165, 2.449e-4, 4.731e-3
-0.170, 2.465e-4, 4.744e-3
-0.175, 2.482e-4, 4.756e-3
-0.180, 2.504e-4, 4.769e-3
-0.185, 2.525e-4, 4.781e-3
-0.190, 2.544e-4, 4.794e-3
-0.195, 2.566e-4, 4.807e-3
-0.200, 2.585e-4, 4.820e-3
-0.205, 2.596e-4, 4.833e-3
-0.210, 2.613e-4, 4.846e-3
-0.215, 2.626e-4, 4.859e-3
-0.220, 2.636e-4, 4.872e-3
-0.225, 2.641e-4, 4.885e-3
-0.230, 2.647e-4, 4.899e-3
-0.235, 2.653e-4, 4.912e-3
-0.240, 2.653e-4, 4.925e-3
-0.245, 2.645e-4, 4.938e-3
-0.250, 2.633e-4, 4.951e-3
-0.255, 2.615e-4, 4.964e-3
-0.260, 2.590e-4, 4.977e-3
-0.265, 2.560e-4, 4.990e-3
-0.270, 2.532e-4, 5.003e-3
-0.275, 2.503e-4, 5.015e-3
-0.280, 2.477e-4, 5.028e-3
-0.285, 2.459e-4, 5.040e-3
-0.290, 2.449e-4, 5.052e-3
-0.295, 2.447e-4, 5.065e-3
-0.300, 2.223e-4, 5.076e-3

Segment 5:
-0.295, 1.993e-4, 5.086e-3
-0.290, 1.948e-4, 5.095e-3
-0.285, 1.936e-4, 5.105e-3
-0.280, 1.932e-4, 5.115e-3
-0.275, 1.930e-4, 5.124e-3
-0.270, 1.929e-4, 5.134e-3
-0.265, 1.926e-4, 5.144e-3
-0.260, 1.921e-4, 5.153e-3
-0.255, 1.912e-4, 5.163e-3
-0.250, 1.903e-4, 5.172e-3
-0.245, 1.888e-4, 5.182e-3
-0.240, 1.873e-4, 5.191e-3
-0.235, 1.862e-4, 5.200e-3
-0.230, 1.853e-4, 5.210e-3
-0.225, 1.838e-4, 5.219e-3
-0.220, 1.824e-4, 5.228e-3
-0.215, 1.812e-4, 5.237e-3
-0.210, 1.803e-4, 5.246e-3
-0.205, 1.794e-4, 5.255e-3
-0.200, 1.779e-4, 5.264e-3
-0.195, 1.766e-4, 5.273e-3
-0.190, 1.756e-4, 5.282e-3
-0.185, 1.746e-4, 5.290e-3
-0.180, 1.737e-4, 5.299e-3
-0.175, 1.726e-4, 5.308e-3
-0.170, 1.716e-4, 5.316e-3
-0.165, 1.706e-4, 5.325e-3
-0.160, 1.697e-4, 5.333e-3
-0.155, 1.686e-4, 5.342e-3
-0.150, 1.676e-4, 5.350e-3
-0.145, 1.668e-4, 5.358e-3
-0.140, 1.658e-4, 5.367e-3
-0.135, 1.650e-4, 5.375e-3
-0.130, 1.642e-4, 5.383e-3
-0.125, 1.633e-4, 5.391e-3
-0.120, 1.628e-4, 5.399e-3
-0.115, 1.622e-4, 5.408e-3
-0.110, 1.620e-4, 5.416e-3
-0.105, 1.619e-4, 5.424e-3
-0.100, 1.623e-4, 5.432e-3
-0.095, 1.629e-4, 5.440e-3
-0.090, 1.638e-4, 5.448e-3
-0.085, 1.649e-4, 5.456e-3
-0.080, 1.661e-4, 5.465e-3
-0.075, 1.673e-4, 5.473e-3
-0.070, 1.685e-4, 5.482e-3
-0.065, 1.697e-4, 5.490e-3
-0.060, 1.706e-4, 5.499e-3
-0.055, 1.713e-4, 5.507e-3
-0.050, 1.717e-4, 5.516e-3
-0.045, 1.719e-4, 5.524e-3
-0.040, 1.721e-4, 5.533e-3
-0.035, 1.722e-4, 5.541e-3
-0.030, 1.724e-4, 5.550e-3
-0.025, 1.728e-4, 5.559e-3
-0.020, 1.732e-4, 5.567e-3
-0.015, 1.737e-4, 5.576e-3
-0.010, 1.742e-4, 5.585e-3
-0.005, 1.748e-4, 5.594e-3
-0.000, 1.756e-4, 5.602e-3
0.005, 1.767e-4, 5.611e-3
0.010, 1.778e-4, 5.620e-3
0.015, 1.785e-4, 5.629e-3
0.020, 1.787e-4, 5.638e-3
0.025, 1.791e-4, 5.647e-3
0.030, 1.795e-4, 5.656e-3
0.035, 1.796e-4, 5.665e-3
0.040, 1.792e-4, 5.674e-3
0.045, 1.786e-4, 5.683e-3
0.050, 1.783e-4, 5.692e-3
0.055, 1.780e-4, 5.701e-3
0.060, 1.773e-4, 5.709e-3
0.065, 1.764e-4, 5.718e-3
0.070, 1.755e-4, 5.727e-3
0.075, 1.748e-4, 5.736e-3
0.080, 1.742e-4, 5.744e-3
0.085, 1.733e-4, 5.753e-3
0.090, 1.724e-4, 5.762e-3
0.095, 1.714e-4, 5.770e-3
0.100, 1.706e-4, 5.779e-3
0.105, 1.699e-4, 5.787e-3
0.110, 1.694e-4, 5.796e-3
0.115, 1.689e-4, 5.804e-3
0.120, 1.685e-4, 5.813e-3
0.125, 1.682e-4, 5.821e-3
0.130, 1.679e-4, 5.829e-3
0.135, 1.675e-4, 5.838e-3
0.140, 1.670e-4, 5.846e-3
0.145, 1.664e-4, 5.854e-3
0.150, 1.658e-4, 5.863e-3
0.155, 1.654e-4, 5.871e-3
0.160, 1.648e-4, 5.879e-3
0.165, 1.642e-4, 5.888e-3
0.170, 1.636e-4, 5.896e-3
0.175, 1.631e-4, 5.904e-3
0.180, 1.626e-4, 5.912e-3
0.185, 1.624e-4, 5.920e-3
0.190, 1.624e-4, 5.928e-3
0.195, 1.627e-4, 5.936e-3
0.200, 1.631e-4, 5.945e-3
0.205, 1.637e-4, 5.953e-3
0.210, 1.645e-4, 5.961e-3
0.215, 1.655e-4, 5.969e-3
0.220, 1.664e-4, 5.978e-3
0.225, 1.673e-4, 5.986e-3
0.230, 1.679e-4, 5.994e-3
0.235, 1.687e-4, 6.003e-3
0.240, 1.696e-4, 6.011e-3
0.245, 1.702e-4, 6.020e-3
0.250, 1.706e-4, 6.028e-3
0.255, 1.706e-4, 6.037e-3
0.260, 1.703e-4, 6.045e-3
0.265, 1.697e-4, 6.054e-3
0.270, 1.690e-4, 6.062e-3
0.275, 1.682e-4, 6.071e-3
0.280, 1.672e-4, 6.079e-3
0.285, 1.663e-4, 6.087e-3
0.290, 1.654e-4, 6.096e-3
0.295, 1.642e-4, 6.104e-3
0.300, 1.627e-4, 6.112e-3
0.305, 1.614e-4, 6.120e-3
0.310, 1.600e-4, 6.128e-3
0.315, 1.585e-4, 6.136e-3
0.320, 1.566e-4, 6.144e-3
0.325, 1.544e-4, 6.151e-3
0.330, 1.519e-4, 6.159e-3
0.335, 1.492e-4, 6.167e-3
0.340, 1.463e-4, 6.174e-3
0.345, 1.431e-4, 6.181e-3
0.350, 1.398e-4, 6.188e-3
0.355, 1.364e-4, 6.195e-3
0.360, 1.328e-4, 6.201e-3
0.365, 1.292e-4, 6.208e-3
0.370, 1.256e-4, 6.214e-3
0.375, 1.219e-4, 6.220e-3
0.380, 1.184e-4, 6.226e-3
0.385, 1.149e-4, 6.232e-3
0.390, 1.114e-4, 6.237e-3
0.395, 1.078e-4, 6.243e-3
0.400, 1.042e-4, 6.248e-3
0.405, 1.004e-4, 6.253e-3
0.410, 9.653e-5, 6.258e-3
0.415, 9.259e-5, 6.263e-3
0.420, 8.860e-5, 6.267e-3
0.425, 8.454e-5, 6.271e-3
0.430, 8.051e-5, 6.275e-3
0.435, 7.659e-5, 6.279e-3
0.440, 7.272e-5, 6.283e-3
0.445, 6.876e-5, 6.286e-3
0.450, 6.494e-5, 6.289e-3
0.455, 6.114e-5, 6.292e-3
0.460, 5.742e-5, 6.295e-3
0.465, 5.373e-5, 6.298e-3
0.470, 5.013e-5, 6.301e-3
0.475, 4.662e-5, 6.303e-3
0.480, 4.323e-5, 6.305e-3
0.485, 3.992e-5, 6.307e-3
0.490, 3.660e-5, 6.309e-3
0.495, 3.343e-5, 6.311e-3
0.500, 3.034e-5, 6.312e-3
0.505, 2.735e-5, 6.313e-3
0.510, 2.449e-5, 6.315e-3
0.515, 2.163e-5, 6.316e-3
0.520, 1.895e-5, 6.317e-3
0.525, 1.638e-5, 6.317e-3
0.530, 1.391e-5, 6.318e-3
0.535, 1.155e-5, 6.319e-3
0.540, 9.307e-6, 6.319e-3
0.545, 7.119e-6, 6.320e-3
0.550, 5.028e-6, 6.320e-3
0.555, 3.133e-6, 6.320e-3
0.560, 1.311e-6, 6.320e-3
0.565, -3.848e-7, 6.320e-3
0.570, -1.998e-6, 6.320e-3
0.575, -3.504e-6, 6.320e-3
0.580, -4.910e-6, 6.320e-3
0.585, -6.214e-6, 6.319e-3
0.590, -7.422e-6, 6.319e-3
0.595, -8.612e-6, 6.318e-3
0.600, -9.697e-6, 6.318e-3
0.605, -1.067e-5, 6.317e-3
0.610, -1.159e-5, 6.317e-3
0.615, -1.235e-5, 6.316e-3
0.620, -1.320e-5, 6.316e-3
0.625, -1.390e-5, 6.315e-3
0.630, -1.456e-5, 6.314e-3
0.635, -1.519e-5, 6.313e-3
0.640, -1.575e-5, 6.313e-3
0.645, -1.629e-5, 6.312e-3
0.650, -1.680e-5, 6.311e-3
0.655, -1.725e-5, 6.310e-3
0.660, -1.768e-5, 6.309e-3
0.665, -1.812e-5, 6.308e-3
0.670, -1.848e-5, 6.307e-3
0.675, -1.885e-5, 6.306e-3
0.680, -1.920e-5, 6.305e-3
0.685, -1.950e-5, 6.304e-3
0.690, -1.982e-5, 6.303e-3
0.695, -2.012e-5, 6.302e-3
0.700, -2.040e-5, 6.301e-3
0.705, -2.069e-5, 6.300e-3
0.710, -2.097e-5, 6.299e-3
0.715, -2.126e-5, 6.298e-3
0.720, -2.152e-5, 6.297e-3
0.725, -2.179e-5, 6.296e-3
0.730, -2.203e-5, 6.295e-3
0.735, -2.227e-5, 6.294e-3
0.740, -2.253e-5, 6.293e-3
0.745, -2.278e-5, 6.292e-3
0.750, -2.302e-5, 6.290e-3
0.755, -2.326e-5, 6.289e-3
0.760, -2.352e-5, 6.288e-3
0.765, -2.379e-5, 6.287e-3
0.770, -2.412e-5, 6.286e-3
0.775, -2.433e-5, 6.285e-3
0.780, -2.462e-5, 6.283e-3
0.785, -2.486e-5, 6.282e-3
0.790, -2.513e-5, 6.281e-3
0.795, -2.536e-5, 6.280e-3
0.800, -2.564e-5, 6.278e-3
0.805, -2.591e-5, 6.277e-3
0.810, -2.618e-5, 6.276e-3
0.815, -2.645e-5, 6.274e-3
0.820, -2.671e-5, 6.273e-3
0.825, -2.700e-5, 6.272e-3
0.830, -2.726e-5, 6.270e-3
0.835, -2.756e-5, 6.269e-3
0.840, -2.788e-5, 6.267e-3
0.845, -2.813e-5, 6.266e-3
0.850, -2.842e-5, 6.265e-3
0.855, -2.871e-5, 6.263e-3
0.860, -2.901e-5, 6.262e-3
0.865, -2.927e-5, 6.260e-3
0.870, -2.957e-5, 6.259e-3
0.875, -2.986e-5, 6.257e-3
0.880, -3.012e-5, 6.256e-3
0.885, -3.040e-5, 6.254e-3
0.890, -3.070e-5, 6.253e-3
0.895, -3.095e-5, 6.251e-3
0.900, -3.120e-5, 6.250e-3
0.905, -3.147e-5, 6.248e-3
0.910, -3.175e-5, 6.247e-3
0.915, -3.203e-5, 6.245e-3
0.920, -3.228e-5, 6.243e-3
0.925, -3.251e-5, 6.242e-3
0.930, -3.276e-5, 6.240e-3
0.935, -3.294e-5, 6.238e-3
0.940, -3.311e-5, 6.237e-3
0.945, -3.330e-5, 6.235e-3
0.950, -3.351e-5, 6.233e-3
0.955, -3.371e-5, 6.232e-3
0.960, -3.388e-5, 6.230e-3
0.965, -3.403e-5, 6.228e-3
0.970, -3.423e-5, 6.227e-3
0.975, -3.440e-5, 6.225e-3
0.980, -3.455e-5, 6.223e-3
0.985, -3.470e-5, 6.221e-3
0.990, -3.484e-5, 6.220e-3
0.995, -3.498e-5, 6.218e-3
1.000, -3.510e-5, 6.216e-3
1.005, -3.523e-5, 6.214e-3
1.010, -3.538e-5, 6.213e-3
1.015, -3.549e-5, 6.211e-3
1.020, -3.563e-5, 6.209e-3
1.025, -3.568e-5, 6.207e-3
1.030, -3.582e-5, 6.206e-3
1.035, -3.595e-5, 6.204e-3
1.040, -3.606e-5, 6.202e-3
1.045, -3.619e-5, 6.200e-3
1.050, -3.629e-5, 6.198e-3
1.055, -3.642e-5, 6.196e-3
1.060, -3.654e-5, 6.195e-3
1.065, -3.668e-5, 6.193e-3
1.070, -3.680e-5, 6.191e-3
1.075, -3.694e-5, 6.189e-3
1.080, -3.706e-5, 6.187e-3
1.085, -3.719e-5, 6.185e-3
1.090, -3.732e-5, 6.184e-3
1.095, -3.745e-5, 6.182e-3
1.100, -3.307e-5, 6.180e-3

Segment 6:
1.095, -2.633e-5, 6.179e-3
1.090, -2.174e-5, 6.178e-3
1.085, -1.825e-5, 6.177e-3
1.080, -1.546e-5, 6.176e-3
1.075, -1.320e-5, 6.175e-3
1.070, -1.136e-5, 6.175e-3
1.065, -9.829e-6, 6.174e-3
1.060, -8.489e-6, 6.174e-3
1.055, -7.336e-6, 6.173e-3
1.050, -6.393e-6, 6.173e-3
1.045, -5.574e-6, 6.173e-3
1.040, -4.839e-6, 6.173e-3
1.035, -4.208e-6, 6.172e-3
1.030, -3.656e-6, 6.172e-3
1.025, -3.196e-6, 6.172e-3
1.020, -2.741e-6, 6.172e-3
1.015, -2.344e-6, 6.172e-3
1.010, -1.992e-6, 6.172e-3
1.005, -1.681e-6, 6.172e-3
1.000, -1.392e-6, 6.172e-3
0.995, -1.112e-6, 6.171e-3
0.990, -8.817e-7, 6.171e-3
0.985, -6.753e-7, 6.171e-3
0.980, -4.775e-7, 6.171e-3
0.975, -2.870e-7, 6.171e-3
0.970, -9.977e-8, 6.171e-3
0.965, 5.954e-8, 6.171e-3
0.960, 1.890e-7, 6.171e-3
0.955, 3.386e-7, 6.171e-3
0.950, 4.601e-7, 6.171e-3
0.945, 5.999e-7, 6.171e-3
0.940, 7.159e-7, 6.171e-3
0.935, 8.566e-7, 6.171e-3
0.930, 9.568e-7, 6.172e-3
0.925, 1.076e-6, 6.172e-3
0.920, 1.181e-6, 6.172e-3
0.915, 1.283e-6, 6.172e-3
0.910, 1.382e-6, 6.172e-3
0.905, 1.472e-6, 6.172e-3
0.900, 1.574e-6, 6.172e-3
0.895, 1.657e-6, 6.172e-3
0.890, 1.764e-6, 6.172e-3
0.885, 1.866e-6, 6.172e-3
0.880, 1.945e-6, 6.172e-3
0.875, 2.039e-6, 6.172e-3
0.870, 2.137e-6, 6.173e-3
0.865, 2.214e-6, 6.173e-3
0.860, 2.325e-6, 6.173e-3
0.855, 2.404e-6, 6.173e-3
0.850, 2.504e-6, 6.173e-3
0.845, 2.590e-6, 6.173e-3
0.840, 2.694e-6, 6.173e-3
0.835, 2.805e-6, 6.173e-3
0.830, 2.905e-6, 6.174e-3
0.825, 3.001e-6, 6.174e-3
0.820, 3.096e-6, 6.174e-3
0.815, 3.203e-6, 6.174e-3
0.810, 3.327e-6, 6.174e-3
0.805, 3.422e-6, 6.174e-3
0.800, 3.554e-6, 6.175e-3
0.795, 3.648e-6, 6.175e-3
0.790, 3.802e-6, 6.175e-3
0.785, 3.922e-6, 6.175e-3
0.780, 4.043e-6, 6.175e-3
0.775, 4.167e-6, 6.175e-3
0.770, 4.320e-6, 6.176e-3
0.765, 4.443e-6, 6.176e-3
0.760, 4.588e-6, 6.176e-3
0.755, 4.756e-6, 6.176e-3
0.750, 4.892e-6, 6.177e-3
0.745, 5.059e-6, 6.177e-3
0.740, 5.238e-6, 6.177e-3
0.735, 5.394e-6, 6.177e-3
0.730, 5.574e-6, 6.178e-3
0.725, 5.784e-6, 6.178e-3
0.720, 5.973e-6, 6.178e-3
0.715, 6.165e-6, 6.179e-3
0.710, 6.372e-6, 6.179e-3
0.705, 6.588e-6, 6.179e-3
0.700, 6.831e-6, 6.180e-3
0.695, 7.079e-6, 6.180e-3
0.690, 7.384e-6, 6.180e-3
0.685, 7.666e-6, 6.181e-3
0.680, 7.952e-6, 6.181e-3
0.675, 8.238e-6, 6.182e-3
0.670, 8.538e-6, 6.182e-3
0.665, 8.858e-6, 6.182e-3
0.660, 9.189e-6, 6.183e-3
0.655, 9.518e-6, 6.183e-3
0.650, 9.882e-6, 6.184e-3
0.645, 1.026e-5, 6.184e-3
0.640, 1.066e-5, 6.185e-3
0.635, 1.109e-5, 6.185e-3
0.630, 1.153e-5, 6.186e-3
0.625, 1.200e-5, 6.187e-3
0.620, 1.249e-5, 6.187e-3
0.615, 1.294e-5, 6.188e-3
0.610, 1.351e-5, 6.189e-3
0.605, 1.409e-5, 6.189e-3
0.600, 1.472e-5, 6.190e-3
0.595, 1.537e-5, 6.191e-3
0.590, 1.607e-5, 6.192e-3
0.585, 1.678e-5, 6.192e-3
0.580, 1.757e-5, 6.193e-3
0.575, 1.837e-5, 6.194e-3
0.570, 1.923e-5, 6.195e-3
0.565, 2.018e-5, 6.196e-3
0.560, 2.114e-5, 6.197e-3
0.555, 2.219e-5, 6.198e-3
0.550, 2.336e-5, 6.199e-3
0.545, 2.453e-5, 6.201e-3
0.540, 2.579e-5, 6.202e-3
0.535, 2.711e-5, 6.203e-3
0.530, 2.852e-5, 6.205e-3
0.525, 3.005e-5, 6.206e-3
0.520, 3.176e-5, 6.208e-3
0.515, 3.350e-5, 6.210e-3
0.510, 3.539e-5, 6.211e-3
0.505, 3.738e-5, 6.213e-3
0.500, 3.965e-5, 6.215e-3
0.495, 4.197e-5, 6.217e-3
0.490, 4.449e-5, 6.219e-3
0.485, 4.724e-5, 6.222e-3
0.480, 5.022e-5, 6.224e-3
0.475, 5.347e-5, 6.227e-3
0.470, 5.707e-5, 6.230e-3
0.465, 6.090e-5, 6.233e-3
0.460, 6.515e-5, 6.236e-3
0.455, 6.967e-5, 6.240e-3
0.450, 7.460e-5, 6.243e-3
0.445, 7.982e-5, 6.247e-3
0.440, 8.544e-5, 6.252e-3
0.435, 9.136e-5, 6.256e-3
0.430, 9.769e-5, 6.261e-3
0.425, 1.043e-4, 6.266e-3
0.420, 1.112e-4, 6.272e-3
0.415, 1.184e-4, 6.278e-3
0.410, 1.259e-4, 6.284e-3
0.405, 1.335e-4, 6.291e-3
0.400, 1.411e-4, 6.298e-3
0.395, 1.488e-4, 6.305e-3
0.390, 1.565e-4, 6.313e-3
0.385, 1.641e-4, 6.321e-3
0.380, 1.716e-4, 6.330e-3
0.375, 1.788e-4, 6.339e-3
0.370, 1.859e-4, 6.348e-3
0.365, 1.926e-4, 6.358e-3
0.360, 1.990e-4, 6.368e-3
0.355, 2.050e-4, 6.378e-3
0.350, 2.105e-4, 6.388e-3
0.345, 2.156e-4, 6.399e-3
0.340, 2.203e-4, 6.410e-3
0.335, 2.245e-4, 6.422e-3
0.330, 2.282e-4, 6.433e-3
0.325, 2.314e-4, 6.444e-3
0.320, 2.341e-4, 6.456e-3
0.315, 2.364e-4, 6.468e-3
0.310, 2.383e-4, 6.480e-3
0.305, 2.398e-4, 6.492e-3
0.300, 2.409e-4, 6.504e-3
0.295, 2.418e-4, 6.516e-3
0.290, 2.423e-4, 6.528e-3
0.285, 2.426e-4, 6.540e-3
0.280, 2.426e-4, 6.552e-3
0.275, 2.424e-4, 6.565e-3
0.270, 2.419e-4, 6.577e-3
0.265, 2.413e-4, 6.589e-3
0.260, 2.405e-4, 6.601e-3
0.255, 2.396e-4, 6.613e-3
0.250, 2.385e-4, 6.625e-3
0.245, 2.375e-4, 6.637e-3
0.240, 2.364e-4, 6.648e-3
0.235, 2.352e-4, 6.660e-3
0.230, 2.341e-4, 6.672e-3
0.225, 2.330e-4, 6.683e-3
0.220, 2.319e-4, 6.695e-3
0.215, 2.309e-4, 6.707e-3
0.210, 2.299e-4, 6.718e-3
0.205, 2.290e-4, 6.730e-3
0.200, 2.284e-4, 6.741e-3
0.195, 2.278e-4, 6.752e-3
0.190, 2.271e-4, 6.764e-3
0.185, 2.265e-4, 6.775e-3
0.180, 2.256e-4, 6.786e-3
0.175, 2.246e-4, 6.798e-3
0.170, 2.236e-4, 6.809e-3
0.165, 2.227e-4, 6.820e-3
0.160, 2.218e-4, 6.831e-3
0.155, 2.210e-4, 6.842e-3
0.150, 2.200e-4, 6.853e-3
0.145, 2.189e-4, 6.864e-3
0.140, 2.179e-4, 6.875e-3
0.135, 2.165e-4, 6.886e-3
0.130, 2.147e-4, 6.896e-3
0.125, 2.127e-4, 6.907e-3
0.120, 2.109e-4, 6.918e-3
0.115, 2.091e-4, 6.928e-3
0.110, 2.073e-4, 6.938e-3
0.105, 2.053e-4, 6.949e-3
0.100, 2.037e-4, 6.959e-3
0.095, 2.023e-4, 6.969e-3
0.090, 2.012e-4, 6.979e-3
0.085, 2.004e-4, 6.989e-3
0.080, 1.998e-4, 6.999e-3
0.075, 1.995e-4, 7.009e-3
0.070, 1.996e-4, 7.019e-3
0.065, 1.999e-4, 7.029e-3
0.060, 2.006e-4, 7.039e-3
0.055, 2.014e-4, 7.049e-3
0.050, 2.025e-4, 7.059e-3
0.045, 2.039e-4, 7.069e-3
0.040, 2.053e-4, 7.080e-3
0.035, 2.065e-4, 7.090e-3
0.030, 2.076e-4, 7.100e-3
0.025, 2.086e-4, 7.111e-3
0.020, 2.095e-4, 7.121e-3
0.015, 2.103e-4, 7.132e-3
0.010, 2.111e-4, 7.142e-3
0.005, 2.116e-4, 7.153e-3
0.000, 2.119e-4, 7.164e-3
-0.005, 2.123e-4, 7.174e-3
-0.010, 2.125e-4, 7.185e-3
-0.015, 2.126e-4, 7.195e-3
-0.020, 2.127e-4, 7.206e-3
-0.025, 2.125e-4, 7.217e-3
-0.030, 2.122e-4, 7.227e-3
-0.035, 2.119e-4, 7.238e-3
-0.040, 2.117e-4, 7.248e-3
-0.045, 2.114e-4, 7.259e-3
-0.050, 2.113e-4, 7.270e-3
-0.055, 2.112e-4, 7.280e-3
-0.060, 2.113e-4, 7.291e-3
-0.065, 2.118e-4, 7.301e-3
-0.070, 2.125e-4, 7.312e-3
-0.075, 2.132e-4, 7.323e-3
-0.080, 2.142e-4, 7.333e-3
-0.085, 2.152e-4, 7.344e-3
-0.090, 2.162e-4, 7.355e-3
-0.095, 2.170e-4, 7.366e-3
-0.100, 2.175e-4, 7.377e-3
-0.105, 2.179e-4, 7.387e-3
-0.110, 2.178e-4, 7.398e-3
-0.115, 2.174e-4, 7.409e-3
-0.120, 2.166e-4, 7.420e-3
-0.125, 2.158e-4, 7.431e-3
-0.130, 2.148e-4, 7.442e-3
-0.135, 2.138e-4, 7.452e-3
-0.140, 2.133e-4, 7.463e-3
-0.145, 2.132e-4, 7.474e-3
-0.150, 2.133e-4, 7.484e-3
-0.155, 2.135e-4, 7.495e-3
-0.160, 2.137e-4, 7.506e-3
-0.165, 2.141e-4, 7.516e-3
-0.170, 2.151e-4, 7.527e-3
-0.175, 2.164e-4, 7.538e-3
-0.180, 2.178e-4, 7.549e-3
-0.185, 2.189e-4, 7.560e-3
-0.190, 2.197e-4, 7.571e-3
-0.195, 2.214e-4, 7.582e-3
-0.200, 2.233e-4, 7.593e-3
-0.205, 2.241e-4, 7.604e-3
-0.210, 2.250e-4, 7.615e-3
-0.215, 2.259e-4, 7.627e-3
-0.220, 2.275e-4, 7.638e-3
-0.225, 2.291e-4, 7.650e-3
-0.230, 2.301e-4, 7.661e-3
-0.235, 2.310e-4, 7.673e-3
-0.240, 2.319e-4, 7.684e-3
-0.245, 2.328e-4, 7.696e-3
-0.250, 2.333e-4, 7.707e-3
-0.255, 2.333e-4, 7.719e-3
-0.260, 2.328e-4, 7.731e-3
-0.265, 2.320e-4, 7.742e-3
-0.270, 2.311e-4, 7.754e-3
-0.275, 2.299e-4, 7.765e-3
-0.280, 2.284e-4, 7.777e-3
-0.285, 2.269e-4, 7.788e-3
-0.290, 2.257e-4, 7.800e-3
-0.295, 2.251e-4, 7.811e-3
-0.300, 2.020e-4, 7.821e-3
