Oct. 19, 2023   14:25:05
Cyclic Voltammetry
File: c:\users\pku\desktop\zzxµç»¯Ñ§\mor.txt
Data Source:  Experiment
Instrument Model:  CHI600B
Header: 
Note: 

Init E (V) = -0.3
High E (V) = 1.1
Low E (V) = -0.3
Init P/N = P
Scan Rate (V/s) = 0.1
Segment = 10
Sample Interval (V) = 0.01
Quiet Time (sec) = 2
Sensitivity (A/V) = 5e-5

Segment 1:
Ep = 0.510V
ip = -6.470e-5A
Ah = -6.094e-5C

Ep = 1.090V
ip = -2.589e-5A
Ah = -3.550e-5C

Segment 2:
Ep = 0.480V
ip = 1.992e-5A
Ah = 1.720e-5C

Ep = -0.290V
ip = 1.600e-5A
Ah = 2.685e-6C

Segment 3:
Ep = 0.500V
ip = -7.043e-5A
Ah = -6.072e-5C

Segment 4:
Ep = 0.490V
ip = 2.002e-5A
Ah = 1.434e-5C

Segment 5:
Ep = -0.180V
ip = -2.425e-6A
Ah = -7.957e-7C

Ep = 0.510V
ip = -7.218e-5A
Ah = -6.904e-5C

Ep = 1.090V
ip = -2.690e-5A
Ah = -3.768e-5C

Segment 6:
Ep = 0.490V
ip = 2.139e-5A
Ah = 1.571e-5C

Segment 7:
Ep = 0.500V
ip = -7.454e-5A
Ah = -6.258e-5C

Ep = 1.090V
ip = -2.628e-5A
Ah = -3.669e-5C

Segment 8:
Ep = 0.490V
ip = 2.190e-5A
Ah = 1.616e-5C

Segment 9:
Ep = 0.500V
ip = -7.548e-5A
Ah = -6.342e-5C

Ep = 1.090V
ip = -2.847e-5A
Ah = -3.992e-5C

Segment 10:
Ep = 0.490V
ip = 2.198e-5A
Ah = 1.611e-5C

Ep = -0.200V
ip = 1.179e-5A
Ah = 1.554e-5C

Potential/V, Current/A, Charge/C

Segment 1:
-0.290, -2.021e-5, -2.021e-6
-0.280, -2.052e-5, -4.073e-6
-0.270, -1.973e-5, -6.046e-6
-0.260, -1.737e-5, -7.783e-6
-0.250, -1.726e-5, -9.508e-6
-0.240, -1.633e-5, -1.114e-5
-0.230, -1.594e-5, -1.274e-5
-0.220, -1.685e-5, -1.442e-5
-0.210, -1.585e-5, -1.600e-5
-0.200, -1.727e-5, -1.773e-5
-0.190, -1.687e-5, -1.942e-5
-0.180, -1.696e-5, -2.112e-5
-0.170, -1.776e-5, -2.289e-5
-0.160, -1.655e-5, -2.455e-5
-0.150, -1.747e-5, -2.629e-5
-0.140, -1.622e-5, -2.792e-5
-0.130, -1.566e-5, -2.948e-5
-0.120, -1.548e-5, -3.103e-5
-0.110, -1.372e-5, -3.240e-5
-0.100, -1.364e-5, -3.377e-5
-0.090, -1.204e-5, -3.497e-5
-0.080, -1.103e-5, -3.607e-5
-0.070, -1.029e-5, -3.710e-5
-0.060, -8.637e-6, -3.797e-5
-0.050, -8.086e-6, -3.877e-5
-0.040, -6.729e-6, -3.945e-5
-0.030, -5.923e-6, -4.004e-5
-0.020, -5.310e-6, -4.057e-5
-0.010, -4.347e-6, -4.101e-5
0.000, -4.005e-6, -4.141e-5
0.010, -3.425e-6, -4.175e-5
0.020, -3.107e-6, -4.206e-5
0.030, -2.949e-6, -4.235e-5
0.040, -2.687e-6, -4.262e-5
0.050, -2.726e-6, -4.290e-5
0.060, -2.622e-6, -4.316e-5
0.070, -2.659e-6, -4.342e-5
0.080, -2.761e-6, -4.370e-5
0.090, -2.776e-6, -4.398e-5
0.100, -3.055e-6, -4.428e-5
0.110, -3.174e-6, -4.460e-5
0.120, -3.492e-6, -4.495e-5
0.130, -3.823e-6, -4.533e-5
0.140, -4.098e-6, -4.574e-5
0.150, -4.608e-6, -4.620e-5
0.160, -4.935e-6, -4.670e-5
0.170, -5.516e-6, -4.725e-5
0.180, -6.078e-6, -4.786e-5
0.190, -6.639e-6, -4.852e-5
0.200, -7.407e-6, -4.926e-5
0.210, -8.054e-6, -5.006e-5
0.220, -8.982e-6, -5.096e-5
0.230, -9.859e-6, -5.195e-5
0.240, -1.075e-5, -5.302e-5
0.250, -1.187e-5, -5.421e-5
0.260, -1.282e-5, -5.549e-5
0.270, -1.403e-5, -5.690e-5
0.280, -1.521e-5, -5.842e-5
0.290, -1.649e-5, -6.007e-5
0.300, -1.801e-5, -6.187e-5
0.310, -1.950e-5, -6.382e-5
0.320, -2.140e-5, -6.596e-5
0.330, -2.338e-5, -6.829e-5
0.340, -2.577e-5, -7.087e-5
0.350, -2.852e-5, -7.372e-5
0.360, -3.156e-5, -7.688e-5
0.370, -3.534e-5, -8.041e-5
0.380, -3.942e-5, -8.435e-5
0.390, -4.424e-5, -8.878e-5
0.400, -4.957e-5, -9.374e-5
0.410, -5.527e-5, -9.926e-5
0.420, -6.156e-5, -1.054e-4
0.430, -6.752e-5, -1.122e-4
0.440, -7.359e-5, -1.195e-4
0.450, -7.936e-5, -1.275e-4
0.460, -8.506e-5, -1.360e-4
0.470, -9.155e-5, -1.451e-4
0.480, -9.761e-5, -1.549e-4
0.490, -1.028e-4, -1.652e-4
0.500, -1.058e-4, -1.758e-4
0.510, -1.067e-4, -1.864e-4
0.520, -1.066e-4, -1.971e-4
0.530, -1.041e-4, -2.075e-4
0.540, -1.004e-4, -2.175e-4
0.550, -9.565e-5, -2.271e-4
0.560, -8.992e-5, -2.361e-4
0.570, -8.512e-5, -2.446e-4
0.580, -7.970e-5, -2.526e-4
0.590, -7.523e-5, -2.601e-4
0.600, -7.112e-5, -2.672e-4
0.610, -6.683e-5, -2.739e-4
0.620, -6.396e-5, -2.803e-4
0.630, -6.038e-5, -2.863e-4
0.640, -5.782e-5, -2.921e-4
0.650, -5.530e-5, -2.976e-4
0.660, -5.258e-5, -3.029e-4
0.670, -5.098e-5, -3.080e-4
0.680, -4.855e-5, -3.128e-4
0.690, -4.712e-5, -3.176e-4
0.700, -4.561e-5, -3.221e-4
0.710, -4.400e-5, -3.265e-4
0.720, -4.336e-5, -3.308e-4
0.730, -4.189e-5, -3.350e-4
0.740, -4.144e-5, -3.392e-4
0.750, -4.078e-5, -3.433e-4
0.760, -4.007e-5, -3.473e-4
0.770, -4.020e-5, -3.513e-4
0.780, -3.958e-5, -3.552e-4
0.790, -3.991e-5, -3.592e-4
0.800, -4.003e-5, -3.632e-4
0.810, -4.025e-5, -3.673e-4
0.820, -4.111e-5, -3.714e-4
0.830, -4.141e-5, -3.755e-4
0.840, -4.261e-5, -3.798e-4
0.850, -4.354e-5, -3.841e-4
0.860, -4.465e-5, -3.886e-4
0.870, -4.634e-5, -3.932e-4
0.880, -4.750e-5, -3.980e-4
0.890, -4.953e-5, -4.029e-4
0.900, -5.122e-5, -4.081e-4
0.910, -5.319e-5, -4.134e-4
0.920, -5.570e-5, -4.189e-4
0.930, -5.761e-5, -4.247e-4
0.940, -6.034e-5, -4.307e-4
0.950, -6.258e-5, -4.370e-4
0.960, -6.508e-5, -4.435e-4
0.970, -6.779e-5, -4.503e-4
0.980, -6.987e-5, -4.573e-4
0.990, -7.268e-5, -4.645e-4
1.000, -7.468e-5, -4.720e-4
1.010, -7.686e-5, -4.797e-4
1.020, -7.905e-5, -4.876e-4
1.030, -8.053e-5, -4.956e-4
1.040, -8.261e-5, -5.039e-4
1.050, -8.385e-5, -5.123e-4
1.060, -8.520e-5, -5.208e-4
1.070, -8.656e-5, -5.295e-4
1.080, -8.718e-5, -5.382e-4
1.090, -8.830e-5, -5.470e-4
1.100, -7.800e-5, -5.548e-4

Segment 2:
1.090, -6.167e-5, -5.610e-4
1.080, -5.094e-5, -5.661e-4
1.070, -4.283e-5, -5.704e-4
1.060, -3.685e-5, -5.740e-4
1.050, -3.185e-5, -5.772e-4
1.040, -2.772e-5, -5.800e-4
1.030, -2.450e-5, -5.825e-4
1.020, -2.134e-5, -5.846e-4
1.010, -1.897e-5, -5.865e-4
1.000, -1.672e-5, -5.882e-4
0.990, -1.469e-5, -5.896e-4
0.980, -1.312e-5, -5.909e-4
0.970, -1.136e-5, -5.921e-4
0.960, -1.010e-5, -5.931e-4
0.950, -8.790e-6, -5.940e-4
0.940, -7.507e-6, -5.947e-4
0.930, -6.624e-6, -5.954e-4
0.920, -5.465e-6, -5.959e-4
0.910, -4.753e-6, -5.964e-4
0.900, -3.882e-6, -5.968e-4
0.890, -3.069e-6, -5.971e-4
0.880, -2.552e-6, -5.973e-4
0.870, -1.690e-6, -5.975e-4
0.860, -1.278e-6, -5.976e-4
0.850, -6.490e-7, -5.977e-4
0.840, -6.639e-8, -5.977e-4
0.830, 2.472e-7, -5.977e-4
0.820, 9.477e-7, -5.976e-4
0.810, 1.201e-6, -5.975e-4
0.800, 1.735e-6, -5.973e-4
0.790, 2.187e-6, -5.971e-4
0.780, 2.433e-6, -5.968e-4
0.770, 3.092e-6, -5.965e-4
0.760, 3.255e-6, -5.962e-4
0.750, 3.821e-6, -5.958e-4
0.740, 4.218e-6, -5.954e-4
0.730, 4.516e-6, -5.950e-4
0.720, 5.207e-6, -5.944e-4
0.710, 5.417e-6, -5.939e-4
0.700, 6.089e-6, -5.933e-4
0.690, 6.555e-6, -5.926e-4
0.680, 7.038e-6, -5.919e-4
0.670, 7.978e-6, -5.911e-4
0.660, 8.342e-6, -5.903e-4
0.650, 9.310e-6, -5.894e-4
0.640, 9.946e-6, -5.884e-4
0.630, 1.078e-5, -5.873e-4
0.620, 1.189e-5, -5.861e-4
0.610, 1.264e-5, -5.848e-4
0.600, 1.413e-5, -5.834e-4
0.590, 1.522e-5, -5.819e-4
0.580, 1.672e-5, -5.802e-4
0.570, 1.847e-5, -5.784e-4
0.560, 1.996e-5, -5.764e-4
0.550, 2.229e-5, -5.742e-4
0.540, 2.413e-5, -5.717e-4
0.530, 2.654e-5, -5.691e-4
0.520, 2.886e-5, -5.662e-4
0.510, 3.090e-5, -5.631e-4
0.500, 3.328e-5, -5.598e-4
0.490, 3.415e-5, -5.564e-4
0.480, 3.489e-5, -5.529e-4
0.470, 3.369e-5, -5.495e-4
0.460, 3.024e-5, -5.465e-4
0.450, 2.467e-5, -5.440e-4
0.440, 1.482e-5, -5.425e-4
0.430, 2.578e-6, -5.423e-4
0.420, -1.324e-5, -5.436e-4
0.410, -3.068e-5, -5.467e-4
0.400, -4.731e-5, -5.514e-4
0.390, -6.240e-5, -5.576e-4
0.380, -7.321e-5, -5.650e-4
0.370, -8.060e-5, -5.730e-4
0.360, -8.457e-5, -5.815e-4
0.350, -8.548e-5, -5.900e-4
0.340, -8.472e-5, -5.985e-4
0.330, -8.203e-5, -6.067e-4
0.320, -7.851e-5, -6.146e-4
0.310, -7.415e-5, -6.220e-4
0.300, -6.903e-5, -6.289e-4
0.290, -6.405e-5, -6.353e-4
0.280, -5.847e-5, -6.411e-4
0.270, -5.317e-5, -6.464e-4
0.260, -4.795e-5, -6.512e-4
0.250, -4.274e-5, -6.555e-4
0.240, -3.811e-5, -6.593e-4
0.230, -3.344e-5, -6.627e-4
0.220, -2.936e-5, -6.656e-4
0.210, -2.566e-5, -6.682e-4
0.200, -2.213e-5, -6.704e-4
0.190, -1.930e-5, -6.723e-4
0.180, -1.647e-5, -6.740e-4
0.170, -1.419e-5, -6.754e-4
0.160, -1.214e-5, -6.766e-4
0.150, -1.025e-5, -6.776e-4
0.140, -8.814e-6, -6.785e-4
0.130, -7.196e-6, -6.792e-4
0.120, -6.067e-6, -6.798e-4
0.110, -5.017e-6, -6.803e-4
0.100, -3.982e-6, -6.807e-4
0.090, -3.278e-6, -6.810e-4
0.080, -2.414e-6, -6.813e-4
0.070, -1.817e-6, -6.815e-4
0.060, -1.188e-6, -6.816e-4
0.050, -5.115e-7, -6.816e-4
0.040, -1.262e-7, -6.817e-4
0.030, 5.750e-7, -6.816e-4
0.020, 1.039e-6, -6.815e-4
0.010, 1.657e-6, -6.813e-4
0.000, 2.453e-6, -6.811e-4
-0.010, 3.037e-6, -6.808e-4
-0.020, 4.262e-6, -6.804e-4
-0.030, 5.076e-6, -6.798e-4
-0.040, 6.318e-6, -6.792e-4
-0.050, 7.966e-6, -6.784e-4
-0.060, 8.999e-6, -6.775e-4
-0.070, 1.135e-5, -6.764e-4
-0.080, 1.240e-5, -6.751e-4
-0.090, 1.453e-5, -6.737e-4
-0.100, 1.652e-5, -6.720e-4
-0.110, 1.734e-5, -6.703e-4
-0.120, 1.995e-5, -6.683e-4
-0.130, 2.006e-5, -6.663e-4
-0.140, 2.195e-5, -6.641e-4
-0.150, 2.282e-5, -6.618e-4
-0.160, 2.285e-5, -6.595e-4
-0.170, 2.470e-5, -6.571e-4
-0.180, 2.363e-5, -6.547e-4
-0.190, 2.509e-5, -6.522e-4
-0.200, 2.479e-5, -6.497e-4
-0.210, 2.453e-5, -6.473e-4
-0.220, 2.583e-5, -6.447e-4
-0.230, 2.450e-5, -6.422e-4
-0.240, 2.580e-5, -6.397e-4
-0.250, 2.564e-5, -6.371e-4
-0.260, 2.623e-5, -6.345e-4
-0.270, 2.904e-5, -6.316e-4
-0.280, 3.197e-5, -6.284e-4
-0.290, 4.191e-5, -6.242e-4
-0.300, 1.429e-5, -6.227e-4

Segment 3:
-0.290, -1.133e-5, -6.239e-4
-0.280, -1.535e-5, -6.254e-4
-0.270, -1.729e-5, -6.271e-4
-0.260, -1.645e-5, -6.288e-4
-0.250, -1.766e-5, -6.306e-4
-0.240, -1.815e-5, -6.324e-4
-0.230, -1.816e-5, -6.342e-4
-0.220, -2.012e-5, -6.362e-4
-0.210, -1.916e-5, -6.381e-4
-0.200, -2.097e-5, -6.402e-4
-0.190, -2.091e-5, -6.423e-4
-0.180, -2.070e-5, -6.444e-4
-0.170, -2.185e-5, -6.466e-4
-0.160, -2.032e-5, -6.486e-4
-0.150, -2.123e-5, -6.507e-4
-0.140, -1.998e-5, -6.527e-4
-0.130, -1.916e-5, -6.546e-4
-0.120, -1.912e-5, -6.565e-4
-0.110, -1.700e-5, -6.582e-4
-0.100, -1.702e-5, -6.599e-4
-0.090, -1.519e-5, -6.615e-4
-0.080, -1.393e-5, -6.628e-4
-0.070, -1.315e-5, -6.642e-4
-0.060, -1.115e-5, -6.653e-4
-0.050, -1.064e-5, -6.663e-4
-0.040, -9.110e-6, -6.673e-4
-0.030, -8.193e-6, -6.681e-4
-0.020, -7.495e-6, -6.688e-4
-0.010, -6.495e-6, -6.695e-4
-0.000, -6.223e-6, -6.701e-4
0.010, -5.599e-6, -6.707e-4
0.020, -5.394e-6, -6.712e-4
0.030, -5.299e-6, -6.717e-4
0.040, -5.170e-6, -6.722e-4
0.050, -5.435e-6, -6.728e-4
0.060, -5.524e-6, -6.733e-4
0.070, -5.904e-6, -6.739e-4
0.080, -6.303e-6, -6.746e-4
0.090, -6.701e-6, -6.752e-4
0.100, -7.371e-6, -6.760e-4
0.110, -7.832e-6, -6.767e-4
0.120, -8.658e-6, -6.776e-4
0.130, -9.347e-6, -6.785e-4
0.140, -1.009e-5, -6.796e-4
0.150, -1.104e-5, -6.807e-4
0.160, -1.180e-5, -6.818e-4
0.170, -1.289e-5, -6.831e-4
0.180, -1.383e-5, -6.845e-4
0.190, -1.488e-5, -6.860e-4
0.200, -1.604e-5, -6.876e-4
0.210, -1.707e-5, -6.893e-4
0.220, -1.840e-5, -6.912e-4
0.230, -1.953e-5, -6.931e-4
0.240, -2.085e-5, -6.952e-4
0.250, -2.219e-5, -6.974e-4
0.260, -2.343e-5, -6.998e-4
0.270, -2.502e-5, -7.023e-4
0.280, -2.634e-5, -7.049e-4
0.290, -2.795e-5, -7.077e-4
0.300, -2.960e-5, -7.106e-4
0.310, -3.127e-5, -7.138e-4
0.320, -3.339e-5, -7.171e-4
0.330, -3.542e-5, -7.206e-4
0.340, -3.799e-5, -7.244e-4
0.350, -4.091e-5, -7.285e-4
0.360, -4.424e-5, -7.330e-4
0.370, -4.831e-5, -7.378e-4
0.380, -5.281e-5, -7.431e-4
0.390, -5.848e-5, -7.489e-4
0.400, -6.459e-5, -7.554e-4
0.410, -7.154e-5, -7.625e-4
0.420, -7.893e-5, -7.704e-4
0.430, -8.614e-5, -7.790e-4
0.440, -9.365e-5, -7.884e-4
0.450, -1.006e-4, -7.985e-4
0.460, -1.079e-4, -8.093e-4
0.470, -1.151e-4, -8.208e-4
0.480, -1.211e-4, -8.329e-4
0.490, -1.255e-4, -8.454e-4
0.500, -1.270e-4, -8.581e-4
0.510, -1.270e-4, -8.708e-4
0.520, -1.254e-4, -8.834e-4
0.530, -1.214e-4, -8.955e-4
0.540, -1.168e-4, -9.072e-4
0.550, -1.101e-4, -9.182e-4
0.560, -1.034e-4, -9.285e-4
0.570, -9.685e-5, -9.382e-4
0.580, -9.002e-5, -9.472e-4
0.590, -8.468e-5, -9.557e-4
0.600, -7.890e-5, -9.636e-4
0.610, -7.426e-5, -9.710e-4
0.620, -6.997e-5, -9.780e-4
0.630, -6.565e-5, -9.846e-4
0.640, -6.260e-5, -9.908e-4
0.650, -5.880e-5, -9.967e-4
0.660, -5.619e-5, -1.002e-3
0.670, -5.340e-5, -1.008e-3
0.680, -5.070e-5, -1.013e-3
0.690, -4.900e-5, -1.018e-3
0.700, -4.649e-5, -1.022e-3
0.710, -4.522e-5, -1.027e-3
0.720, -4.360e-5, -1.031e-3
0.730, -4.220e-5, -1.035e-3
0.740, -4.156e-5, -1.040e-3
0.750, -4.021e-5, -1.044e-3
0.760, -3.997e-5, -1.048e-3
0.770, -3.927e-5, -1.051e-3
0.780, -3.896e-5, -1.055e-3
0.790, -3.916e-5, -1.059e-3
0.800, -3.886e-5, -1.063e-3
0.810, -3.966e-5, -1.067e-3
0.820, -3.989e-5, -1.071e-3
0.830, -4.071e-5, -1.075e-3
0.840, -4.179e-5, -1.079e-3
0.850, -4.254e-5, -1.084e-3
0.860, -4.423e-5, -1.088e-3
0.870, -4.535e-5, -1.093e-3
0.880, -4.711e-5, -1.097e-3
0.890, -4.897e-5, -1.102e-3
0.900, -5.063e-5, -1.107e-3
0.910, -5.313e-5, -1.113e-3
0.920, -5.507e-5, -1.118e-3
0.930, -5.770e-5, -1.124e-3
0.940, -6.012e-5, -1.130e-3
0.950, -6.244e-5, -1.136e-3
0.960, -6.539e-5, -1.143e-3
0.970, -6.754e-5, -1.149e-3
0.980, -7.033e-5, -1.156e-3
0.990, -7.265e-5, -1.164e-3
1.000, -7.480e-5, -1.171e-3
1.010, -7.727e-5, -1.179e-3
1.020, -7.883e-5, -1.187e-3
1.030, -8.099e-5, -1.195e-3
1.040, -8.247e-5, -1.203e-3
1.050, -8.385e-5, -1.212e-3
1.060, -8.535e-5, -1.220e-3
1.070, -8.604e-5, -1.229e-3
1.080, -8.735e-5, -1.237e-3
1.090, -8.779e-5, -1.246e-3
1.100, -7.771e-5, -1.254e-3

Segment 4:
1.090, -6.181e-5, -1.260e-3
1.080, -5.095e-5, -1.265e-3
1.070, -4.341e-5, -1.270e-3
1.060, -3.725e-5, -1.273e-3
1.050, -3.230e-5, -1.277e-3
1.040, -2.843e-5, -1.279e-3
1.030, -2.482e-5, -1.282e-3
1.020, -2.200e-5, -1.284e-3
1.010, -1.938e-5, -1.286e-3
1.000, -1.709e-5, -1.288e-3
0.990, -1.524e-5, -1.289e-3
0.980, -1.325e-5, -1.291e-3
0.970, -1.181e-5, -1.292e-3
0.960, -1.029e-5, -1.293e-3
0.950, -8.918e-6, -1.294e-3
0.940, -7.816e-6, -1.294e-3
0.930, -6.523e-6, -1.295e-3
0.920, -5.721e-6, -1.296e-3
0.910, -4.714e-6, -1.296e-3
0.900, -3.860e-6, -1.297e-3
0.890, -3.219e-6, -1.297e-3
0.880, -2.301e-6, -1.297e-3
0.870, -1.844e-6, -1.297e-3
0.860, -1.096e-6, -1.297e-3
0.850, -5.520e-7, -1.297e-3
0.840, -1.244e-7, -1.297e-3
0.830, 5.770e-7, -1.297e-3
0.820, 8.247e-7, -1.297e-3
0.810, 1.460e-6, -1.297e-3
0.800, 1.846e-6, -1.297e-3
0.790, 2.189e-6, -1.297e-3
0.780, 2.798e-6, -1.296e-3
0.770, 2.995e-6, -1.296e-3
0.760, 3.602e-6, -1.296e-3
0.750, 3.925e-6, -1.295e-3
0.740, 4.294e-6, -1.295e-3
0.730, 4.908e-6, -1.294e-3
0.720, 5.125e-6, -1.294e-3
0.710, 5.842e-6, -1.293e-3
0.700, 6.177e-6, -1.293e-3
0.690, 6.755e-6, -1.292e-3
0.680, 7.500e-6, -1.291e-3
0.670, 7.926e-6, -1.291e-3
0.660, 8.884e-6, -1.290e-3
0.650, 9.377e-6, -1.289e-3
0.640, 1.029e-5, -1.288e-3
0.630, 1.124e-5, -1.287e-3
0.620, 1.198e-5, -1.285e-3
0.610, 1.339e-5, -1.284e-3
0.600, 1.428e-5, -1.283e-3
0.590, 1.588e-5, -1.281e-3
0.580, 1.735e-5, -1.279e-3
0.570, 1.888e-5, -1.277e-3
0.560, 2.108e-5, -1.275e-3
0.550, 2.277e-5, -1.273e-3
0.540, 2.539e-5, -1.270e-3
0.530, 2.757e-5, -1.268e-3
0.520, 2.997e-5, -1.265e-3
0.510, 3.273e-5, -1.261e-3
0.500, 3.426e-5, -1.258e-3
0.490, 3.612e-5, -1.254e-3
0.480, 3.605e-5, -1.251e-3
0.470, 3.478e-5, -1.247e-3
0.460, 3.130e-5, -1.244e-3
0.450, 2.391e-5, -1.242e-3
0.440, 1.402e-5, -1.240e-3
0.430, -6.768e-7, -1.240e-3
0.420, -1.792e-5, -1.242e-3
0.410, -3.690e-5, -1.246e-3
0.400, -5.582e-5, -1.252e-3
0.390, -7.126e-5, -1.259e-3
0.380, -8.340e-5, -1.267e-3
0.370, -9.098e-5, -1.276e-3
0.360, -9.491e-5, -1.286e-3
0.350, -9.617e-5, -1.295e-3
0.340, -9.468e-5, -1.305e-3
0.330, -9.198e-5, -1.314e-3
0.320, -8.782e-5, -1.323e-3
0.310, -8.279e-5, -1.331e-3
0.300, -7.751e-5, -1.339e-3
0.290, -7.143e-5, -1.346e-3
0.280, -6.558e-5, -1.352e-3
0.270, -5.941e-5, -1.358e-3
0.260, -5.342e-5, -1.364e-3
0.250, -4.788e-5, -1.368e-3
0.240, -4.228e-5, -1.373e-3
0.230, -3.738e-5, -1.376e-3
0.220, -3.266e-5, -1.380e-3
0.210, -2.842e-5, -1.383e-3
0.200, -2.478e-5, -1.385e-3
0.190, -2.119e-5, -1.387e-3
0.180, -1.838e-5, -1.389e-3
0.170, -1.569e-5, -1.391e-3
0.160, -1.338e-5, -1.392e-3
0.150, -1.150e-5, -1.393e-3
0.140, -9.633e-6, -1.394e-3
0.130, -8.224e-6, -1.395e-3
0.120, -6.822e-6, -1.395e-3
0.110, -5.655e-6, -1.396e-3
0.100, -4.779e-6, -1.397e-3
0.090, -3.777e-6, -1.397e-3
0.080, -3.146e-6, -1.397e-3
0.070, -2.417e-6, -1.397e-3
0.060, -1.756e-6, -1.398e-3
0.050, -1.262e-6, -1.398e-3
0.040, -5.847e-7, -1.398e-3
0.030, -1.977e-7, -1.398e-3
0.020, 4.497e-7, -1.398e-3
0.010, 1.152e-6, -1.398e-3
0.000, 1.736e-6, -1.398e-3
-0.010, 2.834e-6, -1.397e-3
-0.020, 3.536e-6, -1.397e-3
-0.030, 4.814e-6, -1.396e-3
-0.040, 6.029e-6, -1.396e-3
-0.050, 7.151e-6, -1.395e-3
-0.060, 9.234e-6, -1.394e-3
-0.070, 1.016e-5, -1.393e-3
-0.080, 1.245e-5, -1.392e-3
-0.090, 1.406e-5, -1.390e-3
-0.100, 1.549e-5, -1.389e-3
-0.110, 1.808e-5, -1.387e-3
-0.120, 1.843e-5, -1.385e-3
-0.130, 2.077e-5, -1.383e-3
-0.140, 2.144e-5, -1.381e-3
-0.150, 2.209e-5, -1.379e-3
-0.160, 2.386e-5, -1.376e-3
-0.170, 2.289e-5, -1.374e-3
-0.180, 2.462e-5, -1.372e-3
-0.190, 2.411e-5, -1.369e-3
-0.200, 2.390e-5, -1.367e-3
-0.210, 2.490e-5, -1.364e-3
-0.220, 2.351e-5, -1.362e-3
-0.230, 2.485e-5, -1.360e-3
-0.240, 2.401e-5, -1.357e-3
-0.250, 2.427e-5, -1.355e-3
-0.260, 2.568e-5, -1.352e-3
-0.270, 2.634e-5, -1.350e-3
-0.280, 3.183e-5, -1.346e-3
-0.290, 3.907e-5, -1.342e-3
-0.300, 1.378e-5, -1.341e-3

Segment 5:
-0.290, -1.157e-5, -1.342e-3
-0.280, -1.704e-5, -1.344e-3
-0.270, -1.650e-5, -1.346e-3
-0.260, -1.769e-5, -1.347e-3
-0.250, -1.775e-5, -1.349e-3
-0.240, -1.771e-5, -1.351e-3
-0.230, -1.953e-5, -1.353e-3
-0.220, -1.884e-5, -1.355e-3
-0.210, -2.054e-5, -1.357e-3
-0.200, -2.076e-5, -1.359e-3
-0.190, -2.078e-5, -1.361e-3
-0.180, -2.218e-5, -1.363e-3
-0.170, -2.076e-5, -1.365e-3
-0.160, -2.196e-5, -1.367e-3
-0.150, -2.088e-5, -1.370e-3
-0.140, -2.001e-5, -1.372e-3
-0.130, -2.022e-5, -1.374e-3
-0.120, -1.801e-5, -1.375e-3
-0.110, -1.803e-5, -1.377e-3
-0.100, -1.635e-5, -1.379e-3
-0.090, -1.496e-5, -1.380e-3
-0.080, -1.430e-5, -1.382e-3
-0.070, -1.211e-5, -1.383e-3
-0.060, -1.155e-5, -1.384e-3
-0.050, -1.005e-5, -1.385e-3
-0.040, -8.926e-6, -1.386e-3
-0.030, -8.268e-6, -1.387e-3
-0.020, -7.024e-6, -1.388e-3
-0.010, -6.687e-6, -1.388e-3
-0.000, -5.976e-6, -1.389e-3
0.010, -5.583e-6, -1.389e-3
0.020, -5.468e-6, -1.390e-3
0.030, -5.181e-6, -1.390e-3
0.040, -5.404e-6, -1.391e-3
0.050, -5.475e-6, -1.392e-3
0.060, -5.750e-6, -1.392e-3
0.070, -6.167e-6, -1.393e-3
0.080, -6.482e-6, -1.393e-3
0.090, -7.118e-6, -1.394e-3
0.100, -7.612e-6, -1.395e-3
0.110, -8.350e-6, -1.396e-3
0.120, -9.131e-6, -1.397e-3
0.130, -9.793e-6, -1.398e-3
0.140, -1.077e-5, -1.399e-3
0.150, -1.156e-5, -1.400e-3
0.160, -1.258e-5, -1.401e-3
0.170, -1.364e-5, -1.402e-3
0.180, -1.461e-5, -1.404e-3
0.190, -1.588e-5, -1.405e-3
0.200, -1.689e-5, -1.407e-3
0.210, -1.819e-5, -1.409e-3
0.220, -1.942e-5, -1.411e-3
0.230, -2.064e-5, -1.413e-3
0.240, -2.208e-5, -1.415e-3
0.250, -2.329e-5, -1.418e-3
0.260, -2.484e-5, -1.420e-3
0.270, -2.620e-5, -1.423e-3
0.280, -2.760e-5, -1.425e-3
0.290, -2.921e-5, -1.428e-3
0.300, -3.066e-5, -1.431e-3
0.310, -3.257e-5, -1.435e-3
0.320, -3.439e-5, -1.438e-3
0.330, -3.647e-5, -1.442e-3
0.340, -3.899e-5, -1.446e-3
0.350, -4.171e-5, -1.450e-3
0.360, -4.519e-5, -1.454e-3
0.370, -4.904e-5, -1.459e-3
0.380, -5.377e-5, -1.465e-3
0.390, -5.942e-5, -1.471e-3
0.400, -6.570e-5, -1.477e-3
0.410, -7.313e-5, -1.484e-3
0.420, -8.059e-5, -1.492e-3
0.430, -8.848e-5, -1.501e-3
0.440, -9.623e-5, -1.511e-3
0.450, -1.037e-4, -1.521e-3
0.460, -1.118e-4, -1.532e-3
0.470, -1.194e-4, -1.544e-3
0.480, -1.263e-4, -1.557e-3
0.490, -1.305e-4, -1.570e-3
0.500, -1.318e-4, -1.583e-3
0.510, -1.319e-4, -1.596e-3
0.520, -1.295e-4, -1.609e-3
0.530, -1.257e-4, -1.622e-3
0.540, -1.202e-4, -1.634e-3
0.550, -1.131e-4, -1.645e-3
0.560, -1.067e-4, -1.656e-3
0.570, -9.936e-5, -1.666e-3
0.580, -9.319e-5, -1.675e-3
0.590, -8.737e-5, -1.684e-3
0.600, -8.151e-5, -1.692e-3
0.610, -7.707e-5, -1.700e-3
0.620, -7.204e-5, -1.707e-3
0.630, -6.815e-5, -1.714e-3
0.640, -6.433e-5, -1.720e-3
0.650, -6.045e-5, -1.726e-3
0.660, -5.781e-5, -1.732e-3
0.670, -5.426e-5, -1.738e-3
0.680, -5.196e-5, -1.743e-3
0.690, -4.949e-5, -1.748e-3
0.700, -4.710e-5, -1.752e-3
0.710, -4.567e-5, -1.757e-3
0.720, -4.353e-5, -1.761e-3
0.730, -4.252e-5, -1.766e-3
0.740, -4.122e-5, -1.770e-3
0.750, -4.009e-5, -1.774e-3
0.760, -3.976e-5, -1.778e-3
0.770, -3.869e-5, -1.782e-3
0.780, -3.874e-5, -1.785e-3
0.790, -3.841e-5, -1.789e-3
0.800, -3.843e-5, -1.793e-3
0.810, -3.902e-5, -1.797e-3
0.820, -3.908e-5, -1.801e-3
0.830, -4.026e-5, -1.805e-3
0.840, -4.090e-5, -1.809e-3
0.850, -4.204e-5, -1.813e-3
0.860, -4.350e-5, -1.818e-3
0.870, -4.462e-5, -1.822e-3
0.880, -4.664e-5, -1.827e-3
0.890, -4.812e-5, -1.832e-3
0.900, -5.021e-5, -1.837e-3
0.910, -5.245e-5, -1.842e-3
0.920, -5.447e-5, -1.847e-3
0.930, -5.731e-5, -1.853e-3
0.940, -5.944e-5, -1.859e-3
0.950, -6.217e-5, -1.865e-3
0.960, -6.484e-5, -1.872e-3
0.970, -6.720e-5, -1.878e-3
0.980, -7.011e-5, -1.885e-3
0.990, -7.218e-5, -1.893e-3
1.000, -7.473e-5, -1.900e-3
1.010, -7.685e-5, -1.908e-3
1.020, -7.861e-5, -1.916e-3
1.030, -8.078e-5, -1.924e-3
1.040, -8.205e-5, -1.932e-3
1.050, -8.383e-5, -1.940e-3
1.060, -8.500e-5, -1.949e-3
1.070, -8.598e-5, -1.957e-3
1.080, -8.725e-5, -1.966e-3
1.090, -8.756e-5, -1.975e-3
1.100, -7.773e-5, -1.983e-3

Segment 6:
1.090, -6.167e-5, -1.989e-3
1.080, -5.107e-5, -1.994e-3
1.070, -4.361e-5, -1.998e-3
1.060, -3.734e-5, -2.002e-3
1.050, -3.264e-5, -2.005e-3
1.040, -2.857e-5, -2.008e-3
1.030, -2.506e-5, -2.011e-3
1.020, -2.225e-5, -2.013e-3
1.010, -1.948e-5, -2.015e-3
1.000, -1.733e-5, -2.016e-3
0.990, -1.534e-5, -2.018e-3
0.980, -1.340e-5, -2.019e-3
0.970, -1.198e-5, -2.021e-3
0.960, -1.031e-5, -2.022e-3
0.950, -9.109e-6, -2.023e-3
0.940, -7.837e-6, -2.023e-3
0.930, -6.605e-6, -2.024e-3
0.920, -5.809e-6, -2.025e-3
0.910, -4.679e-6, -2.025e-3
0.900, -3.958e-6, -2.025e-3
0.890, -3.167e-6, -2.026e-3
0.880, -2.323e-6, -2.026e-3
0.870, -1.874e-6, -2.026e-3
0.860, -1.008e-6, -2.026e-3
0.850, -5.851e-7, -2.026e-3
0.840, -2.181e-8, -2.026e-3
0.830, 6.029e-7, -2.026e-3
0.820, 8.794e-7, -2.026e-3
0.810, 1.583e-6, -2.026e-3
0.800, 1.839e-6, -2.026e-3
0.790, 2.336e-6, -2.026e-3
0.780, 2.840e-6, -2.025e-3
0.770, 3.073e-6, -2.025e-3
0.760, 3.735e-6, -2.025e-3
0.750, 3.933e-6, -2.024e-3
0.740, 4.446e-6, -2.024e-3
0.730, 4.952e-6, -2.023e-3
0.720, 5.246e-6, -2.023e-3
0.710, 5.978e-6, -2.022e-3
0.700, 6.228e-6, -2.022e-3
0.690, 6.923e-6, -2.021e-3
0.680, 7.573e-6, -2.020e-3
0.670, 8.089e-6, -2.019e-3
0.660, 9.041e-6, -2.018e-3
0.650, 9.487e-6, -2.017e-3
0.640, 1.050e-5, -2.016e-3
0.630, 1.137e-5, -2.015e-3
0.620, 1.222e-5, -2.014e-3
0.610, 1.360e-5, -2.013e-3
0.600, 1.451e-5, -2.011e-3
0.590, 1.622e-5, -2.010e-3
0.580, 1.761e-5, -2.008e-3
0.570, 1.932e-5, -2.006e-3
0.560, 2.149e-5, -2.004e-3
0.550, 2.328e-5, -2.001e-3
0.540, 2.603e-5, -1.999e-3
0.530, 2.818e-5, -1.996e-3
0.520, 3.088e-5, -1.993e-3
0.510, 3.349e-5, -1.990e-3
0.500, 3.521e-5, -1.986e-3
0.490, 3.719e-5, -1.982e-3
0.480, 3.699e-5, -1.979e-3
0.470, 3.574e-5, -1.975e-3
0.460, 3.184e-5, -1.972e-3
0.450, 2.404e-5, -1.969e-3
0.440, 1.346e-5, -1.968e-3
0.430, -2.331e-6, -1.968e-3
0.420, -2.064e-5, -1.970e-3
0.410, -4.095e-5, -1.974e-3
0.400, -6.087e-5, -1.981e-3
0.390, -7.714e-5, -1.988e-3
0.380, -8.984e-5, -1.997e-3
0.370, -9.766e-5, -2.007e-3
0.360, -1.016e-4, -2.017e-3
0.350, -1.028e-4, -2.027e-3
0.340, -1.010e-4, -2.038e-3
0.330, -9.804e-5, -2.047e-3
0.320, -9.344e-5, -2.057e-3
0.310, -8.804e-5, -2.066e-3
0.300, -8.223e-5, -2.074e-3
0.290, -7.568e-5, -2.081e-3
0.280, -6.937e-5, -2.088e-3
0.270, -6.273e-5, -2.095e-3
0.260, -5.633e-5, -2.100e-3
0.250, -5.035e-5, -2.105e-3
0.240, -4.442e-5, -2.110e-3
0.230, -3.928e-5, -2.114e-3
0.220, -3.423e-5, -2.117e-3
0.210, -2.975e-5, -2.120e-3
0.200, -2.584e-5, -2.123e-3
0.190, -2.204e-5, -2.125e-3
0.180, -1.907e-5, -2.127e-3
0.170, -1.621e-5, -2.128e-3
0.160, -1.382e-5, -2.130e-3
0.150, -1.186e-5, -2.131e-3
0.140, -9.931e-6, -2.132e-3
0.130, -8.519e-6, -2.133e-3
0.120, -7.074e-6, -2.133e-3
0.110, -5.911e-6, -2.134e-3
0.100, -4.991e-6, -2.135e-3
0.090, -3.941e-6, -2.135e-3
0.080, -3.309e-6, -2.135e-3
0.070, -2.535e-6, -2.135e-3
0.060, -1.877e-6, -2.136e-3
0.050, -1.396e-6, -2.136e-3
0.040, -6.745e-7, -2.136e-3
0.030, -2.563e-7, -2.136e-3
0.020, 4.157e-7, -2.136e-3
0.010, 1.063e-6, -2.136e-3
0.000, 1.596e-6, -2.136e-3
-0.010, 2.644e-6, -2.135e-3
-0.020, 3.237e-6, -2.135e-3
-0.030, 4.493e-6, -2.135e-3
-0.040, 5.667e-6, -2.134e-3
-0.050, 6.796e-6, -2.133e-3
-0.060, 8.906e-6, -2.132e-3
-0.070, 9.852e-6, -2.131e-3
-0.080, 1.223e-5, -2.130e-3
-0.090, 1.372e-5, -2.129e-3
-0.100, 1.527e-5, -2.127e-3
-0.110, 1.773e-5, -2.126e-3
-0.120, 1.806e-5, -2.124e-3
-0.130, 2.059e-5, -2.122e-3
-0.140, 2.089e-5, -2.120e-3
-0.150, 2.191e-5, -2.117e-3
-0.160, 2.346e-5, -2.115e-3
-0.170, 2.253e-5, -2.113e-3
-0.180, 2.434e-5, -2.110e-3
-0.190, 2.346e-5, -2.108e-3
-0.200, 2.344e-5, -2.106e-3
-0.210, 2.427e-5, -2.103e-3
-0.220, 2.279e-5, -2.101e-3
-0.230, 2.408e-5, -2.099e-3
-0.240, 2.306e-5, -2.096e-3
-0.250, 2.349e-5, -2.094e-3
-0.260, 2.469e-5, -2.091e-3
-0.270, 2.548e-5, -2.089e-3
-0.280, 3.105e-5, -2.086e-3
-0.290, 3.828e-5, -2.082e-3
-0.300, 1.354e-5, -2.081e-3

Segment 7:
-0.290, -1.153e-5, -2.082e-3
-0.280, -1.667e-5, -2.083e-3
-0.270, -1.620e-5, -2.085e-3
-0.260, -1.747e-5, -2.087e-3
-0.250, -1.726e-5, -2.089e-3
-0.240, -1.753e-5, -2.090e-3
-0.230, -1.916e-5, -2.092e-3
-0.220, -1.860e-5, -2.094e-3
-0.210, -2.051e-5, -2.096e-3
-0.200, -2.052e-5, -2.098e-3
-0.190, -2.088e-5, -2.100e-3
-0.180, -2.201e-5, -2.102e-3
-0.170, -2.070e-5, -2.105e-3
-0.160, -2.201e-5, -2.107e-3
-0.150, -2.064e-5, -2.109e-3
-0.140, -2.009e-5, -2.111e-3
-0.130, -1.991e-5, -2.113e-3
-0.120, -1.776e-5, -2.115e-3
-0.110, -1.787e-5, -2.116e-3
-0.100, -1.585e-5, -2.118e-3
-0.090, -1.475e-5, -2.119e-3
-0.080, -1.390e-5, -2.121e-3
-0.070, -1.185e-5, -2.122e-3
-0.060, -1.132e-5, -2.123e-3
-0.050, -9.672e-6, -2.124e-3
-0.040, -8.674e-6, -2.125e-3
-0.030, -7.924e-6, -2.126e-3
-0.020, -6.773e-6, -2.126e-3
-0.010, -6.505e-6, -2.127e-3
-0.000, -5.787e-6, -2.128e-3
0.010, -5.502e-6, -2.128e-3
0.020, -5.349e-6, -2.129e-3
0.030, -5.098e-6, -2.129e-3
0.040, -5.304e-6, -2.130e-3
0.050, -5.331e-6, -2.130e-3
0.060, -5.630e-6, -2.131e-3
0.070, -5.979e-6, -2.131e-3
0.080, -6.310e-6, -2.132e-3
0.090, -6.963e-6, -2.133e-3
0.100, -7.448e-6, -2.134e-3
0.110, -8.200e-6, -2.134e-3
0.120, -8.978e-6, -2.135e-3
0.130, -9.708e-6, -2.136e-3
0.140, -1.069e-5, -2.137e-3
0.150, -1.147e-5, -2.138e-3
0.160, -1.257e-5, -2.140e-3
0.170, -1.357e-5, -2.141e-3
0.180, -1.462e-5, -2.143e-3
0.190, -1.587e-5, -2.144e-3
0.200, -1.691e-5, -2.146e-3
0.210, -1.828e-5, -2.148e-3
0.220, -1.948e-5, -2.150e-3
0.230, -2.080e-5, -2.152e-3
0.240, -2.223e-5, -2.154e-3
0.250, -2.350e-5, -2.156e-3
0.260, -2.512e-5, -2.159e-3
0.270, -2.648e-5, -2.161e-3
0.280, -2.797e-5, -2.164e-3
0.290, -2.959e-5, -2.167e-3
0.300, -3.109e-5, -2.170e-3
0.310, -3.302e-5, -2.174e-3
0.320, -3.482e-5, -2.177e-3
0.330, -3.698e-5, -2.181e-3
0.340, -3.948e-5, -2.185e-3
0.350, -4.222e-5, -2.189e-3
0.360, -4.575e-5, -2.193e-3
0.370, -4.961e-5, -2.198e-3
0.380, -5.452e-5, -2.204e-3
0.390, -6.019e-5, -2.210e-3
0.400, -6.673e-5, -2.217e-3
0.410, -7.437e-5, -2.224e-3
0.420, -8.208e-5, -2.232e-3
0.430, -9.035e-5, -2.241e-3
0.440, -9.820e-5, -2.251e-3
0.450, -1.061e-4, -2.262e-3
0.460, -1.143e-4, -2.273e-3
0.470, -1.221e-4, -2.285e-3
0.480, -1.293e-4, -2.298e-3
0.490, -1.331e-4, -2.312e-3
0.500, -1.344e-4, -2.325e-3
0.510, -1.342e-4, -2.338e-3
0.520, -1.313e-4, -2.352e-3
0.530, -1.275e-4, -2.364e-3
0.540, -1.214e-4, -2.376e-3
0.550, -1.143e-4, -2.388e-3
0.560, -1.077e-4, -2.399e-3
0.570, -1.003e-4, -2.409e-3
0.580, -9.439e-5, -2.418e-3
0.590, -8.821e-5, -2.427e-3
0.600, -8.264e-5, -2.435e-3
0.610, -7.792e-5, -2.443e-3
0.620, -7.281e-5, -2.450e-3
0.630, -6.907e-5, -2.457e-3
0.640, -6.478e-5, -2.464e-3
0.650, -6.119e-5, -2.470e-3
0.660, -5.820e-5, -2.476e-3
0.670, -5.463e-5, -2.481e-3
0.680, -5.246e-5, -2.486e-3
0.690, -4.953e-5, -2.491e-3
0.700, -4.748e-5, -2.496e-3
0.710, -4.569e-5, -2.501e-3
0.720, -4.360e-5, -2.505e-3
0.730, -4.266e-5, -2.509e-3
0.740, -4.097e-5, -2.513e-3
0.750, -4.024e-5, -2.517e-3
0.760, -3.945e-5, -2.521e-3
0.770, -3.858e-5, -2.525e-3
0.780, -3.867e-5, -2.529e-3
0.790, -3.808e-5, -2.533e-3
0.800, -3.845e-5, -2.537e-3
0.810, -3.868e-5, -2.541e-3
0.820, -3.898e-5, -2.544e-3
0.830, -4.012e-5, -2.548e-3
0.840, -4.059e-5, -2.552e-3
0.850, -4.201e-5, -2.557e-3
0.860, -4.317e-5, -2.561e-3
0.870, -4.459e-5, -2.565e-3
0.880, -4.650e-5, -2.570e-3
0.890, -4.792e-5, -2.575e-3
0.900, -5.029e-5, -2.580e-3
0.910, -5.222e-5, -2.585e-3
0.920, -5.456e-5, -2.591e-3
0.930, -5.724e-5, -2.596e-3
0.940, -5.935e-5, -2.602e-3
0.950, -6.231e-5, -2.608e-3
0.960, -6.464e-5, -2.615e-3
0.970, -6.733e-5, -2.622e-3
0.980, -7.003e-5, -2.629e-3
0.990, -7.221e-5, -2.636e-3
1.000, -7.496e-5, -2.643e-3
1.010, -7.681e-5, -2.651e-3
1.020, -7.900e-5, -2.659e-3
1.030, -8.091e-5, -2.667e-3
1.040, -8.235e-5, -2.675e-3
1.050, -8.422e-5, -2.684e-3
1.060, -8.514e-5, -2.692e-3
1.070, -8.655e-5, -2.701e-3
1.080, -8.743e-5, -2.710e-3
1.090, -8.792e-5, -2.718e-3
1.100, -7.808e-5, -2.726e-3

Segment 8:
1.090, -6.182e-5, -2.732e-3
1.080, -5.146e-5, -2.738e-3
1.070, -4.379e-5, -2.742e-3
1.060, -3.759e-5, -2.746e-3
1.050, -3.296e-5, -2.749e-3
1.040, -2.869e-5, -2.752e-3
1.030, -2.537e-5, -2.754e-3
1.020, -2.239e-5, -2.757e-3
1.010, -1.965e-5, -2.759e-3
1.000, -1.756e-5, -2.760e-3
0.990, -1.535e-5, -2.762e-3
0.980, -1.361e-5, -2.763e-3
0.970, -1.202e-5, -2.764e-3
0.960, -1.038e-5, -2.766e-3
0.950, -9.243e-6, -2.766e-3
0.940, -7.766e-6, -2.767e-3
0.930, -6.738e-6, -2.768e-3
0.920, -5.762e-6, -2.768e-3
0.910, -4.682e-6, -2.769e-3
0.900, -4.034e-6, -2.769e-3
0.890, -3.044e-6, -2.770e-3
0.880, -2.434e-6, -2.770e-3
0.870, -1.766e-6, -2.770e-3
0.860, -9.989e-7, -2.770e-3
0.850, -6.469e-7, -2.770e-3
0.840, 1.348e-7, -2.770e-3
0.830, 4.868e-7, -2.770e-3
0.820, 1.014e-6, -2.770e-3
0.810, 1.587e-6, -2.770e-3
0.800, 1.835e-6, -2.770e-3
0.790, 2.501e-6, -2.769e-3
0.780, 2.728e-6, -2.769e-3
0.770, 3.238e-6, -2.769e-3
0.760, 3.722e-6, -2.768e-3
0.750, 3.937e-6, -2.768e-3
0.740, 4.626e-6, -2.768e-3
0.730, 4.817e-6, -2.767e-3
0.720, 5.436e-6, -2.767e-3
0.710, 5.925e-6, -2.766e-3
0.700, 6.270e-6, -2.765e-3
0.690, 7.104e-6, -2.765e-3
0.680, 7.442e-6, -2.764e-3
0.670, 8.311e-6, -2.763e-3
0.660, 8.971e-6, -2.762e-3
0.650, 9.566e-6, -2.761e-3
0.640, 1.066e-5, -2.760e-3
0.630, 1.125e-5, -2.759e-3
0.620, 1.250e-5, -2.758e-3
0.610, 1.350e-5, -2.756e-3
0.600, 1.471e-5, -2.755e-3
0.590, 1.635e-5, -2.753e-3
0.580, 1.758e-5, -2.752e-3
0.570, 1.970e-5, -2.750e-3
0.560, 2.141e-5, -2.747e-3
0.550, 2.370e-5, -2.745e-3
0.540, 2.618e-5, -2.743e-3
0.530, 2.832e-5, -2.740e-3
0.520, 3.147e-5, -2.737e-3
0.510, 3.356e-5, -2.733e-3
0.500, 3.597e-5, -2.730e-3
0.490, 3.745e-5, -2.726e-3
0.480, 3.741e-5, -2.722e-3
0.470, 3.641e-5, -2.718e-3
0.460, 3.165e-5, -2.715e-3
0.450, 2.436e-5, -2.713e-3
0.440, 1.266e-5, -2.712e-3
0.430, -3.369e-6, -2.712e-3
0.420, -2.206e-5, -2.714e-3
0.410, -4.360e-5, -2.718e-3
0.400, -6.352e-5, -2.725e-3
0.390, -8.070e-5, -2.733e-3
0.380, -9.355e-5, -2.742e-3
0.370, -1.013e-4, -2.752e-3
0.360, -1.056e-4, -2.763e-3
0.350, -1.062e-4, -2.774e-3
0.340, -1.046e-4, -2.784e-3
0.330, -1.013e-4, -2.794e-3
0.320, -9.637e-5, -2.804e-3
0.310, -9.094e-5, -2.813e-3
0.300, -8.453e-5, -2.821e-3
0.290, -7.800e-5, -2.829e-3
0.280, -7.135e-5, -2.836e-3
0.270, -6.438e-5, -2.843e-3
0.260, -5.799e-5, -2.849e-3
0.250, -5.144e-5, -2.854e-3
0.240, -4.557e-5, -2.858e-3
0.230, -4.011e-5, -2.862e-3
0.220, -3.485e-5, -2.866e-3
0.210, -3.045e-5, -2.869e-3
0.200, -2.619e-5, -2.871e-3
0.190, -2.254e-5, -2.874e-3
0.180, -1.936e-5, -2.876e-3
0.170, -1.643e-5, -2.877e-3
0.160, -1.417e-5, -2.879e-3
0.150, -1.193e-5, -2.880e-3
0.140, -1.014e-5, -2.881e-3
0.130, -8.585e-6, -2.882e-3
0.120, -7.051e-6, -2.882e-3
0.110, -6.014e-6, -2.883e-3
0.100, -4.857e-6, -2.883e-3
0.090, -4.040e-6, -2.884e-3
0.080, -3.318e-6, -2.884e-3
0.070, -2.509e-6, -2.884e-3
0.060, -2.025e-6, -2.885e-3
0.050, -1.317e-6, -2.885e-3
0.040, -8.388e-7, -2.885e-3
0.030, -3.258e-7, -2.885e-3
0.020, 3.430e-7, -2.885e-3
0.010, 7.836e-7, -2.885e-3
0.000, 1.675e-6, -2.885e-3
-0.010, 2.345e-6, -2.884e-3
-0.020, 3.231e-6, -2.884e-3
-0.030, 4.476e-6, -2.884e-3
-0.040, 5.259e-6, -2.883e-3
-0.050, 7.117e-6, -2.882e-3
-0.060, 8.199e-6, -2.882e-3
-0.070, 9.943e-6, -2.881e-3
-0.080, 1.196e-5, -2.879e-3
-0.090, 1.302e-5, -2.878e-3
-0.100, 1.583e-5, -2.877e-3
-0.110, 1.645e-5, -2.875e-3
-0.120, 1.861e-5, -2.873e-3
-0.130, 1.996e-5, -2.871e-3
-0.140, 2.039e-5, -2.869e-3
-0.150, 2.266e-5, -2.867e-3
-0.160, 2.180e-5, -2.865e-3
-0.170, 2.345e-5, -2.862e-3
-0.180, 2.329e-5, -2.860e-3
-0.190, 2.292e-5, -2.858e-3
-0.200, 2.402e-5, -2.855e-3
-0.210, 2.245e-5, -2.853e-3
-0.220, 2.358e-5, -2.851e-3
-0.230, 2.282e-5, -2.848e-3
-0.240, 2.241e-5, -2.846e-3
-0.250, 2.359e-5, -2.844e-3
-0.260, 2.301e-5, -2.841e-3
-0.270, 2.615e-5, -2.839e-3
-0.280, 2.947e-5, -2.836e-3
-0.290, 3.814e-5, -2.832e-3
-0.300, 1.317e-5, -2.831e-3

Segment 9:
-0.290, -1.289e-5, -2.832e-3
-0.280, -1.564e-5, -2.834e-3
-0.270, -1.698e-5, -2.835e-3
-0.260, -1.677e-5, -2.837e-3
-0.250, -1.635e-5, -2.839e-3
-0.240, -1.811e-5, -2.840e-3
-0.230, -1.758e-5, -2.842e-3
-0.220, -1.946e-5, -2.844e-3
-0.210, -1.969e-5, -2.846e-3
-0.200, -2.009e-5, -2.848e-3
-0.190, -2.170e-5, -2.850e-3
-0.180, -2.054e-5, -2.852e-3
-0.170, -2.208e-5, -2.854e-3
-0.160, -2.115e-5, -2.857e-3
-0.150, -2.068e-5, -2.859e-3
-0.140, -2.084e-5, -2.861e-3
-0.130, -1.870e-5, -2.863e-3
-0.120, -1.902e-5, -2.864e-3
-0.110, -1.702e-5, -2.866e-3
-0.100, -1.601e-5, -2.868e-3
-0.090, -1.513e-5, -2.869e-3
-0.080, -1.299e-5, -2.871e-3
-0.070, -1.252e-5, -2.872e-3
-0.060, -1.070e-5, -2.873e-3
-0.050, -9.673e-6, -2.874e-3
-0.040, -8.873e-6, -2.875e-3
-0.030, -7.517e-6, -2.876e-3
-0.020, -7.171e-6, -2.876e-3
-0.010, -6.258e-6, -2.877e-3
-0.000, -5.862e-6, -2.877e-3
0.010, -5.575e-6, -2.878e-3
0.020, -5.187e-6, -2.879e-3
0.030, -5.267e-6, -2.879e-3
0.040, -5.140e-6, -2.880e-3
0.050, -5.403e-6, -2.880e-3
0.060, -5.646e-6, -2.881e-3
0.070, -5.934e-6, -2.881e-3
0.080, -6.504e-6, -2.882e-3
0.090, -6.883e-6, -2.883e-3
0.100, -7.589e-6, -2.883e-3
0.110, -8.237e-6, -2.884e-3
0.120, -8.976e-6, -2.885e-3
0.130, -9.880e-6, -2.886e-3
0.140, -1.061e-5, -2.887e-3
0.150, -1.167e-5, -2.888e-3
0.160, -1.256e-5, -2.890e-3
0.170, -1.363e-5, -2.891e-3
0.180, -1.478e-5, -2.892e-3
0.190, -1.582e-5, -2.894e-3
0.200, -1.715e-5, -2.896e-3
0.210, -1.826e-5, -2.898e-3
0.220, -1.961e-5, -2.899e-3
0.230, -2.094e-5, -2.902e-3
0.240, -2.221e-5, -2.904e-3
0.250, -2.375e-5, -2.906e-3
0.260, -2.507e-5, -2.909e-3
0.270, -2.660e-5, -2.911e-3
0.280, -2.807e-5, -2.914e-3
0.290, -2.957e-5, -2.917e-3
0.300, -3.134e-5, -2.920e-3
0.310, -3.299e-5, -2.924e-3
0.320, -3.500e-5, -2.927e-3
0.330, -3.708e-5, -2.931e-3
0.340, -3.951e-5, -2.935e-3
0.350, -4.247e-5, -2.939e-3
0.360, -4.571e-5, -2.944e-3
0.370, -4.988e-5, -2.949e-3
0.380, -5.457e-5, -2.954e-3
0.390, -6.038e-5, -2.960e-3
0.400, -6.712e-5, -2.967e-3
0.410, -7.455e-5, -2.974e-3
0.420, -8.279e-5, -2.982e-3
0.430, -9.079e-5, -2.992e-3
0.440, -9.900e-5, -3.001e-3
0.450, -1.070e-4, -3.012e-3
0.460, -1.151e-4, -3.024e-3
0.470, -1.236e-4, -3.036e-3
0.480, -1.302e-4, -3.049e-3
0.490, -1.344e-4, -3.062e-3
0.500, -1.355e-4, -3.076e-3
0.510, -1.347e-4, -3.089e-3
0.520, -1.327e-4, -3.103e-3
0.530, -1.279e-4, -3.116e-3
0.540, -1.222e-4, -3.128e-3
0.550, -1.152e-4, -3.139e-3
0.560, -1.080e-4, -3.150e-3
0.570, -1.017e-4, -3.160e-3
0.580, -9.470e-5, -3.170e-3
0.590, -8.928e-5, -3.179e-3
0.600, -8.353e-5, -3.187e-3
0.610, -7.837e-5, -3.195e-3
0.620, -7.410e-5, -3.202e-3
0.630, -6.917e-5, -3.209e-3
0.640, -6.574e-5, -3.216e-3
0.650, -6.162e-5, -3.222e-3
0.660, -5.836e-5, -3.228e-3
0.670, -5.549e-5, -3.233e-3
0.680, -5.213e-5, -3.239e-3
0.690, -5.017e-5, -3.244e-3
0.700, -4.740e-5, -3.248e-3
0.710, -4.567e-5, -3.253e-3
0.720, -4.401e-5, -3.257e-3
0.730, -4.219e-5, -3.261e-3
0.740, -4.143e-5, -3.266e-3
0.750, -3.993e-5, -3.270e-3
0.760, -3.945e-5, -3.274e-3
0.770, -3.878e-5, -3.277e-3
0.780, -3.825e-5, -3.281e-3
0.790, -3.846e-5, -3.285e-3
0.800, -3.808e-5, -3.289e-3
0.810, -3.876e-5, -3.293e-3
0.820, -3.906e-5, -3.297e-3
0.830, -3.977e-5, -3.301e-3
0.840, -4.095e-5, -3.305e-3
0.850, -4.167e-5, -3.309e-3
0.860, -4.337e-5, -3.313e-3
0.870, -4.464e-5, -3.318e-3
0.880, -4.631e-5, -3.322e-3
0.890, -4.834e-5, -3.327e-3
0.900, -4.997e-5, -3.332e-3
0.910, -5.256e-5, -3.337e-3
0.920, -5.458e-5, -3.343e-3
0.930, -5.718e-5, -3.349e-3
0.940, -5.977e-5, -3.355e-3
0.950, -6.206e-5, -3.361e-3
0.960, -6.511e-5, -3.367e-3
0.970, -6.736e-5, -3.374e-3
0.980, -7.017e-5, -3.381e-3
0.990, -7.264e-5, -3.388e-3
1.000, -7.476e-5, -3.396e-3
1.010, -7.735e-5, -3.404e-3
1.020, -7.896e-5, -3.411e-3
1.030, -8.115e-5, -3.420e-3
1.040, -8.271e-5, -3.428e-3
1.050, -8.415e-5, -3.436e-3
1.060, -8.571e-5, -3.445e-3
1.070, -8.644e-5, -3.453e-3
1.080, -8.780e-5, -3.462e-3
1.090, -8.830e-5, -3.471e-3
1.100, -7.816e-5, -3.479e-3

Segment 10:
1.090, -6.237e-5, -3.485e-3
1.080, -5.158e-5, -3.490e-3
1.070, -4.409e-5, -3.495e-3
1.060, -3.796e-5, -3.498e-3
1.050, -3.302e-5, -3.502e-3
1.040, -2.909e-5, -3.505e-3
1.030, -2.544e-5, -3.507e-3
1.020, -2.255e-5, -3.509e-3
1.010, -1.989e-5, -3.511e-3
1.000, -1.750e-5, -3.513e-3
0.990, -1.562e-5, -3.515e-3
0.980, -1.358e-5, -3.516e-3
0.970, -1.210e-5, -3.517e-3
0.960, -1.053e-5, -3.518e-3
0.950, -9.131e-6, -3.519e-3
0.940, -7.990e-6, -3.520e-3
0.930, -6.652e-6, -3.521e-3
0.920, -5.823e-6, -3.521e-3
0.910, -4.766e-6, -3.522e-3
0.900, -3.908e-6, -3.522e-3
0.890, -3.234e-6, -3.523e-3
0.880, -2.306e-6, -3.523e-3
0.870, -1.845e-6, -3.523e-3
0.860, -1.036e-6, -3.523e-3
0.850, -5.090e-7, -3.523e-3
0.840, -3.931e-8, -3.523e-3
0.830, 6.675e-7, -3.523e-3
0.820, 9.199e-7, -3.523e-3
0.810, 1.603e-6, -3.523e-3
0.800, 1.932e-6, -3.523e-3
0.790, 2.352e-6, -3.522e-3
0.780, 2.923e-6, -3.522e-3
0.770, 3.125e-6, -3.522e-3
0.760, 3.788e-6, -3.521e-3
0.750, 4.023e-6, -3.521e-3
0.740, 4.494e-6, -3.521e-3
0.730, 5.045e-6, -3.520e-3
0.720, 5.297e-6, -3.520e-3
0.710, 6.043e-6, -3.519e-3
0.700, 6.302e-6, -3.518e-3
0.690, 6.987e-6, -3.518e-3
0.680, 7.680e-6, -3.517e-3
0.670, 8.170e-6, -3.516e-3
0.660, 9.123e-6, -3.515e-3
0.650, 9.585e-6, -3.514e-3
0.640, 1.061e-5, -3.513e-3
0.630, 1.149e-5, -3.512e-3
0.620, 1.234e-5, -3.511e-3
0.610, 1.375e-5, -3.509e-3
0.600, 1.467e-5, -3.508e-3
0.590, 1.641e-5, -3.506e-3
0.580, 1.780e-5, -3.504e-3
0.570, 1.957e-5, -3.502e-3
0.560, 2.176e-5, -3.500e-3
0.550, 2.365e-5, -3.498e-3
0.540, 2.643e-5, -3.495e-3
0.530, 2.858e-5, -3.492e-3
0.520, 3.145e-5, -3.489e-3
0.510, 3.406e-5, -3.486e-3
0.500, 3.589e-5, -3.482e-3
0.490, 3.789e-5, -3.478e-3
0.480, 3.758e-5, -3.475e-3
0.470, 3.638e-5, -3.471e-3
0.460, 3.201e-5, -3.468e-3
0.450, 2.390e-5, -3.465e-3
0.440, 1.252e-5, -3.464e-3
0.430, -4.167e-6, -3.465e-3
0.420, -2.330e-5, -3.467e-3
0.410, -4.492e-5, -3.471e-3
0.400, -6.568e-5, -3.478e-3
0.390, -8.273e-5, -3.486e-3
0.380, -9.592e-5, -3.496e-3
0.370, -1.037e-4, -3.506e-3
0.360, -1.078e-4, -3.517e-3
0.350, -1.085e-4, -3.528e-3
0.340, -1.066e-4, -3.539e-3
0.330, -1.032e-4, -3.549e-3
0.320, -9.812e-5, -3.559e-3
0.310, -9.238e-5, -3.568e-3
0.300, -8.602e-5, -3.577e-3
0.290, -7.910e-5, -3.584e-3
0.280, -7.243e-5, -3.592e-3
0.270, -6.527e-5, -3.598e-3
0.260, -5.865e-5, -3.604e-3
0.250, -5.214e-5, -3.609e-3
0.240, -4.600e-5, -3.614e-3
0.230, -4.060e-5, -3.618e-3
0.220, -3.524e-5, -3.621e-3
0.210, -3.072e-5, -3.625e-3
0.200, -2.653e-5, -3.627e-3
0.190, -2.273e-5, -3.629e-3
0.180, -1.963e-5, -3.631e-3
0.170, -1.661e-5, -3.633e-3
0.160, -1.426e-5, -3.635e-3
0.150, -1.207e-5, -3.636e-3
0.140, -1.013e-5, -3.637e-3
0.130, -8.646e-6, -3.638e-3
0.120, -7.068e-6, -3.638e-3
0.110, -5.983e-6, -3.639e-3
0.100, -4.928e-6, -3.639e-3
0.090, -3.990e-6, -3.640e-3
0.080, -3.332e-6, -3.640e-3
0.070, -2.496e-6, -3.640e-3
0.060, -1.998e-6, -3.641e-3
0.050, -1.405e-6, -3.641e-3
0.040, -8.027e-7, -3.641e-3
0.030, -4.086e-7, -3.641e-3
0.020, 3.256e-7, -3.641e-3
0.010, 7.777e-7, -3.641e-3
0.000, 1.545e-6, -3.641e-3
-0.010, 2.382e-6, -3.640e-3
-0.020, 3.076e-6, -3.640e-3
-0.030, 4.474e-6, -3.640e-3
-0.040, 5.254e-6, -3.639e-3
-0.050, 6.952e-6, -3.638e-3
-0.060, 8.423e-6, -3.638e-3
-0.070, 9.768e-6, -3.637e-3
-0.080, 1.211e-5, -3.635e-3
-0.090, 1.297e-5, -3.634e-3
-0.100, 1.569e-5, -3.632e-3
-0.110, 1.675e-5, -3.631e-3
-0.120, 1.815e-5, -3.629e-3
-0.130, 2.019e-5, -3.627e-3
-0.140, 2.006e-5, -3.625e-3
-0.150, 2.240e-5, -3.623e-3
-0.160, 2.200e-5, -3.621e-3
-0.170, 2.279e-5, -3.618e-3
-0.180, 2.360e-5, -3.616e-3
-0.190, 2.244e-5, -3.614e-3
-0.200, 2.381e-5, -3.611e-3
-0.210, 2.251e-5, -3.609e-3
-0.220, 2.284e-5, -3.607e-3
-0.230, 2.296e-5, -3.604e-3
-0.240, 2.186e-5, -3.602e-3
-0.250, 2.344e-5, -3.600e-3
-0.260, 2.294e-5, -3.598e-3
-0.270, 2.560e-5, -3.595e-3
-0.280, 2.978e-5, -3.592e-3
-0.290, 3.754e-5, -3.588e-3
-0.300, 1.336e-5, -3.587e-3
