Nov. 1, 2023   14:19:55
Cyclic Voltammetry
File: c:\users\pku\desktop\zqk\ ×´ .txt
Data Source:  Experiment
Instrument Model:  CHI600B
Header: 
Note: 

Init E (V) = 0.65
High E (V) = 1.1
Low E (V) = -0.29
Init P/N = N
Scan Rate (V/s) = 0.1
Segment = 6
Sample Interval (V) = 0.005
Quiet Time (sec) = 2
Sensitivity (A/V) = 5e-6

Segment 1:
Ep = -0.285V
ip = 1.120e-6A
Ah = 1.230e-6C

Segment 2:
Ep = 0.500V
ip = -3.878e-6A
Ah = -3.674e-6C

Segment 3:
Ep = 0.470V
ip = 1.083e-6A
Ah = 9.032e-7C

Segment 4:
Ep = 0.495V
ip = -5.422e-6A
Ah = -4.749e-6C

Segment 5:
Ep = 0.475V
ip = 1.217e-6A
Ah = 9.452e-7C

Segment 6:
Ep = 0.490V
ip = -5.865e-6A
Ah = -4.600e-6C

Potential/V, Current/A, Charge/C

Segment 1:
0.645, -1.617e-6, -8.086e-8
0.640, -1.494e-6, -1.556e-7
0.635, -1.417e-6, -2.264e-7
0.630, -1.364e-6, -2.946e-7
0.625, -1.334e-6, -3.613e-7
0.620, -1.311e-6, -4.268e-7
0.615, -1.305e-6, -4.921e-7
0.610, -1.300e-6, -5.571e-7
0.605, -1.307e-6, -6.225e-7
0.600, -1.323e-6, -6.886e-7
0.595, -1.343e-6, -7.558e-7
0.590, -1.369e-6, -8.242e-7
0.585, -1.402e-6, -8.944e-7
0.580, -1.441e-6, -9.664e-7
0.575, -1.485e-6, -1.041e-6
0.570, -1.535e-6, -1.117e-6
0.565, -1.588e-6, -1.197e-6
0.560, -1.651e-6, -1.279e-6
0.555, -1.717e-6, -1.365e-6
0.550, -1.789e-6, -1.455e-6
0.545, -1.867e-6, -1.548e-6
0.540, -1.950e-6, -1.646e-6
0.535, -2.041e-6, -1.748e-6
0.530, -2.137e-6, -1.854e-6
0.525, -2.237e-6, -1.966e-6
0.520, -2.345e-6, -2.084e-6
0.515, -2.463e-6, -2.207e-6
0.510, -2.583e-6, -2.336e-6
0.505, -2.708e-6, -2.471e-6
0.500, -2.838e-6, -2.613e-6
0.495, -2.971e-6, -2.762e-6
0.490, -3.107e-6, -2.917e-6
0.485, -3.252e-6, -3.080e-6
0.480, -3.394e-6, -3.249e-6
0.475, -3.534e-6, -3.426e-6
0.470, -3.678e-6, -3.610e-6
0.465, -3.819e-6, -3.801e-6
0.460, -3.963e-6, -3.999e-6
0.455, -4.105e-6, -4.204e-6
0.450, -4.240e-6, -4.416e-6
0.445, -4.371e-6, -4.635e-6
0.440, -4.496e-6, -4.860e-6
0.435, -4.613e-6, -5.090e-6
0.430, -4.722e-6, -5.326e-6
0.425, -4.821e-6, -5.567e-6
0.420, -4.906e-6, -5.813e-6
0.415, -4.979e-6, -6.062e-6
0.410, -5.037e-6, -6.314e-6
0.405, -5.076e-6, -6.567e-6
0.400, -5.103e-6, -6.822e-6
0.395, -5.113e-6, -7.078e-6
0.390, -5.107e-6, -7.333e-6
0.385, -5.086e-6, -7.588e-6
0.380, -5.051e-6, -7.840e-6
0.375, -4.999e-6, -8.090e-6
0.370, -4.937e-6, -8.337e-6
0.365, -4.865e-6, -8.580e-6
0.360, -4.778e-6, -8.819e-6
0.355, -4.684e-6, -9.053e-6
0.350, -4.584e-6, -9.283e-6
0.345, -4.478e-6, -9.507e-6
0.340, -4.363e-6, -9.725e-6
0.335, -4.244e-6, -9.937e-6
0.330, -4.120e-6, -1.014e-5
0.325, -3.993e-6, -1.034e-5
0.320, -3.859e-6, -1.054e-5
0.315, -3.727e-6, -1.072e-5
0.310, -3.593e-6, -1.090e-5
0.305, -3.459e-6, -1.107e-5
0.300, -3.324e-6, -1.124e-5
0.295, -3.184e-6, -1.140e-5
0.290, -3.046e-6, -1.155e-5
0.285, -2.912e-6, -1.170e-5
0.280, -2.777e-6, -1.184e-5
0.275, -2.644e-6, -1.197e-5
0.270, -2.513e-6, -1.209e-5
0.265, -2.381e-6, -1.221e-5
0.260, -2.252e-6, -1.233e-5
0.255, -2.128e-6, -1.243e-5
0.250, -2.009e-6, -1.253e-5
0.245, -1.892e-6, -1.263e-5
0.240, -1.777e-6, -1.272e-5
0.235, -1.668e-6, -1.280e-5
0.230, -1.565e-6, -1.288e-5
0.225, -1.463e-6, -1.295e-5
0.220, -1.369e-6, -1.302e-5
0.215, -1.275e-6, -1.308e-5
0.210, -1.188e-6, -1.314e-5
0.205, -1.108e-6, -1.320e-5
0.200, -1.027e-6, -1.325e-5
0.195, -9.511e-7, -1.330e-5
0.190, -8.780e-7, -1.334e-5
0.185, -8.039e-7, -1.338e-5
0.180, -7.396e-7, -1.342e-5
0.175, -6.779e-7, -1.345e-5
0.170, -6.200e-7, -1.348e-5
0.165, -5.672e-7, -1.351e-5
0.160, -5.142e-7, -1.354e-5
0.155, -4.643e-7, -1.356e-5
0.150, -4.177e-7, -1.358e-5
0.145, -3.741e-7, -1.360e-5
0.140, -3.320e-7, -1.362e-5
0.135, -2.921e-7, -1.363e-5
0.130, -2.553e-7, -1.364e-5
0.125, -2.186e-7, -1.365e-5
0.120, -1.845e-7, -1.366e-5
0.115, -1.547e-7, -1.367e-5
0.110, -1.222e-7, -1.368e-5
0.105, -9.291e-8, -1.368e-5
0.100, -6.650e-8, -1.369e-5
0.095, -3.869e-8, -1.369e-5
0.090, -1.268e-8, -1.369e-5
0.085, 1.030e-8, -1.369e-5
0.080, 3.163e-8, -1.369e-5
0.075, 5.480e-8, -1.368e-5
0.070, 7.615e-8, -1.368e-5
0.065, 9.796e-8, -1.367e-5
0.060, 1.172e-7, -1.367e-5
0.055, 1.382e-7, -1.366e-5
0.050, 1.551e-7, -1.365e-5
0.045, 1.748e-7, -1.365e-5
0.040, 1.948e-7, -1.364e-5
0.035, 2.129e-7, -1.363e-5
0.030, 2.299e-7, -1.361e-5
0.025, 2.488e-7, -1.360e-5
0.020, 2.685e-7, -1.359e-5
0.015, 2.899e-7, -1.357e-5
0.010, 3.094e-7, -1.356e-5
0.005, 3.326e-7, -1.354e-5
0.000, 3.526e-7, -1.352e-5
-0.005, 3.789e-7, -1.350e-5
-0.010, 4.032e-7, -1.348e-5
-0.015, 4.307e-7, -1.346e-5
-0.020, 4.582e-7, -1.344e-5
-0.025, 4.904e-7, -1.342e-5
-0.030, 5.229e-7, -1.339e-5
-0.035, 5.571e-7, -1.336e-5
-0.040, 5.960e-7, -1.333e-5
-0.045, 6.354e-7, -1.330e-5
-0.050, 6.810e-7, -1.327e-5
-0.055, 7.268e-7, -1.323e-5
-0.060, 7.785e-7, -1.319e-5
-0.065, 8.301e-7, -1.315e-5
-0.070, 8.804e-7, -1.311e-5
-0.075, 9.357e-7, -1.306e-5
-0.080, 9.914e-7, -1.301e-5
-0.085, 1.050e-6, -1.296e-5
-0.090, 1.108e-6, -1.290e-5
-0.095, 1.167e-6, -1.284e-5
-0.100, 1.233e-6, -1.278e-5
-0.105, 1.289e-6, -1.272e-5
-0.110, 1.349e-6, -1.265e-5
-0.115, 1.410e-6, -1.258e-5
-0.120, 1.469e-6, -1.250e-5
-0.125, 1.529e-6, -1.243e-5
-0.130, 1.587e-6, -1.235e-5
-0.135, 1.640e-6, -1.227e-5
-0.140, 1.695e-6, -1.218e-5
-0.145, 1.749e-6, -1.209e-5
-0.150, 1.797e-6, -1.201e-5
-0.155, 1.852e-6, -1.191e-5
-0.160, 1.900e-6, -1.182e-5
-0.165, 1.945e-6, -1.172e-5
-0.170, 1.989e-6, -1.162e-5
-0.175, 2.038e-6, -1.152e-5
-0.180, 2.077e-6, -1.142e-5
-0.185, 2.115e-6, -1.131e-5
-0.190, 2.160e-6, -1.120e-5
-0.195, 2.201e-6, -1.109e-5
-0.200, 2.241e-6, -1.098e-5
-0.205, 2.262e-6, -1.087e-5
-0.210, 2.324e-6, -1.075e-5
-0.215, 2.365e-6, -1.063e-5
-0.220, 2.405e-6, -1.051e-5
-0.225, 2.444e-6, -1.039e-5
-0.230, 2.482e-6, -1.027e-5
-0.235, 2.533e-6, -1.014e-5
-0.240, 2.577e-6, -1.001e-5
-0.245, 2.628e-6, -9.878e-6
-0.250, 2.677e-6, -9.744e-6
-0.255, 2.740e-6, -9.607e-6
-0.260, 2.792e-6, -9.468e-6
-0.265, 2.863e-6, -9.325e-6
-0.270, 2.940e-6, -9.178e-6
-0.275, 3.030e-6, -9.026e-6
-0.280, 3.141e-6, -8.869e-6
-0.285, 3.275e-6, -8.705e-6
-0.290, 1.900e-6, -8.610e-6

Segment 2:
-0.285, 7.335e-7, -8.574e-6
-0.280, 3.267e-7, -8.557e-6
-0.275, 6.431e-8, -8.554e-6
-0.270, -1.255e-7, -8.560e-6
-0.265, -2.757e-7, -8.574e-6
-0.260, -3.979e-7, -8.594e-6
-0.255, -5.071e-7, -8.619e-6
-0.250, -6.027e-7, -8.649e-6
-0.245, -6.851e-7, -8.684e-6
-0.240, -7.659e-7, -8.722e-6
-0.235, -8.483e-7, -8.764e-6
-0.230, -9.093e-7, -8.810e-6
-0.225, -9.752e-7, -8.859e-6
-0.220, -1.028e-6, -8.910e-6
-0.215, -1.079e-6, -8.964e-6
-0.210, -1.120e-6, -9.020e-6
-0.205, -1.145e-6, -9.077e-6
-0.200, -1.193e-6, -9.137e-6
-0.195, -1.222e-6, -9.198e-6
-0.190, -1.246e-6, -9.260e-6
-0.185, -1.266e-6, -9.324e-6
-0.180, -1.280e-6, -9.388e-6
-0.175, -1.293e-6, -9.452e-6
-0.170, -1.304e-6, -9.517e-6
-0.165, -1.311e-6, -9.583e-6
-0.160, -1.318e-6, -9.649e-6
-0.155, -1.319e-6, -9.715e-6
-0.150, -1.309e-6, -9.780e-6
-0.145, -1.304e-6, -9.846e-6
-0.140, -1.297e-6, -9.910e-6
-0.135, -1.284e-6, -9.975e-6
-0.130, -1.270e-6, -1.004e-5
-0.125, -1.258e-6, -1.010e-5
-0.120, -1.243e-6, -1.016e-5
-0.115, -1.226e-6, -1.022e-5
-0.110, -1.203e-6, -1.028e-5
-0.105, -1.185e-6, -1.034e-5
-0.100, -1.160e-6, -1.040e-5
-0.095, -1.139e-6, -1.046e-5
-0.090, -1.109e-6, -1.051e-5
-0.085, -1.084e-6, -1.057e-5
-0.080, -1.055e-6, -1.062e-5
-0.075, -1.031e-6, -1.067e-5
-0.070, -1.001e-6, -1.072e-5
-0.065, -9.759e-7, -1.077e-5
-0.060, -9.507e-7, -1.082e-5
-0.055, -9.235e-7, -1.087e-5
-0.050, -8.976e-7, -1.091e-5
-0.045, -8.771e-7, -1.095e-5
-0.040, -8.533e-7, -1.100e-5
-0.035, -8.312e-7, -1.104e-5
-0.030, -8.071e-7, -1.108e-5
-0.025, -7.900e-7, -1.112e-5
-0.020, -7.761e-7, -1.116e-5
-0.015, -7.610e-7, -1.120e-5
-0.010, -7.519e-7, -1.123e-5
-0.005, -7.394e-7, -1.127e-5
-0.000, -7.299e-7, -1.131e-5
0.005, -7.229e-7, -1.134e-5
0.010, -7.148e-7, -1.138e-5
0.015, -7.104e-7, -1.141e-5
0.020, -7.073e-7, -1.145e-5
0.025, -7.057e-7, -1.148e-5
0.030, -7.051e-7, -1.152e-5
0.035, -7.046e-7, -1.155e-5
0.040, -7.054e-7, -1.159e-5
0.045, -7.066e-7, -1.163e-5
0.050, -7.090e-7, -1.166e-5
0.055, -7.110e-7, -1.170e-5
0.060, -7.172e-7, -1.173e-5
0.065, -7.247e-7, -1.177e-5
0.070, -7.311e-7, -1.180e-5
0.075, -7.371e-7, -1.184e-5
0.080, -7.468e-7, -1.188e-5
0.085, -7.550e-7, -1.192e-5
0.090, -7.605e-7, -1.195e-5
0.095, -7.717e-7, -1.199e-5
0.100, -7.816e-7, -1.203e-5
0.105, -7.916e-7, -1.207e-5
0.110, -8.036e-7, -1.211e-5
0.115, -8.144e-7, -1.215e-5
0.120, -8.340e-7, -1.219e-5
0.125, -8.506e-7, -1.224e-5
0.130, -8.608e-7, -1.228e-5
0.135, -8.770e-7, -1.232e-5
0.140, -8.901e-7, -1.237e-5
0.145, -9.060e-7, -1.241e-5
0.150, -9.253e-7, -1.246e-5
0.155, -9.433e-7, -1.251e-5
0.160, -9.571e-7, -1.256e-5
0.165, -9.765e-7, -1.260e-5
0.170, -9.926e-7, -1.265e-5
0.175, -1.016e-6, -1.270e-5
0.180, -1.037e-6, -1.276e-5
0.185, -1.057e-6, -1.281e-5
0.190, -1.081e-6, -1.286e-5
0.195, -1.106e-6, -1.292e-5
0.200, -1.134e-6, -1.298e-5
0.205, -1.157e-6, -1.303e-5
0.210, -1.185e-6, -1.309e-5
0.215, -1.217e-6, -1.315e-5
0.220, -1.248e-6, -1.322e-5
0.225, -1.280e-6, -1.328e-5
0.230, -1.315e-6, -1.335e-5
0.235, -1.350e-6, -1.341e-5
0.240, -1.386e-6, -1.348e-5
0.245, -1.426e-6, -1.355e-5
0.250, -1.466e-6, -1.363e-5
0.255, -1.509e-6, -1.370e-5
0.260, -1.552e-6, -1.378e-5
0.265, -1.597e-6, -1.386e-5
0.270, -1.644e-6, -1.394e-5
0.275, -1.694e-6, -1.403e-5
0.280, -1.744e-6, -1.411e-5
0.285, -1.797e-6, -1.420e-5
0.290, -1.852e-6, -1.430e-5
0.295, -1.910e-6, -1.439e-5
0.300, -1.970e-6, -1.449e-5
0.305, -2.034e-6, -1.459e-5
0.310, -2.101e-6, -1.470e-5
0.315, -2.170e-6, -1.481e-5
0.320, -2.244e-6, -1.492e-5
0.325, -2.323e-6, -1.503e-5
0.330, -2.412e-6, -1.515e-5
0.335, -2.503e-6, -1.528e-5
0.340, -2.596e-6, -1.541e-5
0.345, -2.697e-6, -1.554e-5
0.350, -2.803e-6, -1.568e-5
0.355, -2.918e-6, -1.583e-5
0.360, -3.038e-6, -1.598e-5
0.365, -3.169e-6, -1.614e-5
0.370, -3.309e-6, -1.631e-5
0.375, -3.452e-6, -1.648e-5
0.380, -3.604e-6, -1.666e-5
0.385, -3.762e-6, -1.685e-5
0.390, -3.932e-6, -1.704e-5
0.395, -4.109e-6, -1.725e-5
0.400, -4.287e-6, -1.746e-5
0.405, -4.474e-6, -1.769e-5
0.410, -4.661e-6, -1.792e-5
0.415, -4.856e-6, -1.816e-5
0.420, -5.049e-6, -1.842e-5
0.425, -5.247e-6, -1.868e-5
0.430, -5.444e-6, -1.895e-5
0.435, -5.652e-6, -1.923e-5
0.440, -5.850e-6, -1.952e-5
0.445, -6.055e-6, -1.983e-5
0.450, -6.261e-6, -2.014e-5
0.455, -6.469e-6, -2.046e-5
0.460, -6.673e-6, -2.080e-5
0.465, -6.862e-6, -2.114e-5
0.470, -7.034e-6, -2.149e-5
0.475, -7.183e-6, -2.185e-5
0.480, -7.294e-6, -2.222e-5
0.485, -7.381e-6, -2.259e-5
0.490, -7.440e-6, -2.296e-5
0.495, -7.479e-6, -2.333e-5
0.500, -7.494e-6, -2.371e-5
0.505, -7.485e-6, -2.408e-5
0.510, -7.449e-6, -2.445e-5
0.515, -7.393e-6, -2.482e-5
0.520, -7.310e-6, -2.519e-5
0.525, -7.210e-6, -2.555e-5
0.530, -7.087e-6, -2.590e-5
0.535, -6.950e-6, -2.625e-5
0.540, -6.807e-6, -2.659e-5
0.545, -6.658e-6, -2.692e-5
0.550, -6.504e-6, -2.725e-5
0.555, -6.344e-6, -2.757e-5
0.560, -6.183e-6, -2.788e-5
0.565, -6.024e-6, -2.818e-5
0.570, -5.865e-6, -2.847e-5
0.575, -5.708e-6, -2.875e-5
0.580, -5.552e-6, -2.903e-5
0.585, -5.396e-6, -2.930e-5
0.590, -5.250e-6, -2.956e-5
0.595, -5.110e-6, -2.982e-5
0.600, -4.973e-6, -3.007e-5
0.605, -4.842e-6, -3.031e-5
0.610, -4.716e-6, -3.055e-5
0.615, -4.589e-6, -3.078e-5
0.620, -4.480e-6, -3.100e-5
0.625, -4.373e-6, -3.122e-5
0.630, -4.270e-6, -3.143e-5
0.635, -4.173e-6, -3.164e-5
0.640, -4.080e-6, -3.185e-5
0.645, -3.996e-6, -3.204e-5
0.650, -3.906e-6, -3.224e-5
0.655, -3.830e-6, -3.243e-5
0.660, -3.758e-6, -3.262e-5
0.665, -3.694e-6, -3.280e-5
0.670, -3.630e-6, -3.299e-5
0.675, -3.571e-6, -3.316e-5
0.680, -3.514e-6, -3.334e-5
0.685, -3.467e-6, -3.351e-5
0.690, -3.419e-6, -3.368e-5
0.695, -3.379e-6, -3.385e-5
0.700, -3.342e-6, -3.402e-5
0.705, -3.308e-6, -3.419e-5
0.710, -3.280e-6, -3.435e-5
0.715, -3.257e-6, -3.451e-5
0.720, -3.233e-6, -3.467e-5
0.725, -3.215e-6, -3.483e-5
0.730, -3.199e-6, -3.499e-5
0.735, -3.187e-6, -3.515e-5
0.740, -3.174e-6, -3.531e-5
0.745, -3.164e-6, -3.547e-5
0.750, -3.159e-6, -3.563e-5
0.755, -3.158e-6, -3.579e-5
0.760, -3.160e-6, -3.595e-5
0.765, -3.167e-6, -3.610e-5
0.770, -3.180e-6, -3.626e-5
0.775, -3.191e-6, -3.642e-5
0.780, -3.202e-6, -3.658e-5
0.785, -3.217e-6, -3.674e-5
0.790, -3.234e-6, -3.690e-5
0.795, -3.256e-6, -3.707e-5
0.800, -3.280e-6, -3.723e-5
0.805, -3.305e-6, -3.740e-5
0.810, -3.334e-6, -3.756e-5
0.815, -3.367e-6, -3.773e-5
0.820, -3.400e-6, -3.790e-5
0.825, -3.439e-6, -3.807e-5
0.830, -3.480e-6, -3.825e-5
0.835, -3.521e-6, -3.842e-5
0.840, -3.571e-6, -3.860e-5
0.845, -3.617e-6, -3.878e-5
0.850, -3.673e-6, -3.897e-5
0.855, -3.727e-6, -3.915e-5
0.860, -3.785e-6, -3.934e-5
0.865, -3.847e-6, -3.953e-5
0.870, -3.913e-6, -3.973e-5
0.875, -3.985e-6, -3.993e-5
0.880, -4.059e-6, -4.013e-5
0.885, -4.130e-6, -4.034e-5
0.890, -4.205e-6, -4.055e-5
0.895, -4.283e-6, -4.076e-5
0.900, -4.366e-6, -4.098e-5
0.905, -4.450e-6, -4.120e-5
0.910, -4.534e-6, -4.143e-5
0.915, -4.624e-6, -4.166e-5
0.920, -4.716e-6, -4.190e-5
0.925, -4.810e-6, -4.214e-5
0.930, -4.905e-6, -4.238e-5
0.935, -4.998e-6, -4.263e-5
0.940, -5.095e-6, -4.289e-5
0.945, -5.191e-6, -4.315e-5
0.950, -5.288e-6, -4.341e-5
0.955, -5.385e-6, -4.368e-5
0.960, -5.482e-6, -4.396e-5
0.965, -5.585e-6, -4.423e-5
0.970, -5.683e-6, -4.452e-5
0.975, -5.777e-6, -4.481e-5
0.980, -5.869e-6, -4.510e-5
0.985, -5.962e-6, -4.540e-5
0.990, -6.050e-6, -4.570e-5
0.995, -6.133e-6, -4.601e-5
1.000, -6.220e-6, -4.632e-5
1.005, -6.302e-6, -4.663e-5
1.010, -6.382e-6, -4.695e-5
1.015, -6.455e-6, -4.728e-5
1.020, -6.529e-6, -4.760e-5
1.025, -6.589e-6, -4.793e-5
1.030, -6.653e-6, -4.827e-5
1.035, -6.714e-6, -4.860e-5
1.040, -6.769e-6, -4.894e-5
1.045, -6.820e-6, -4.928e-5
1.050, -6.864e-6, -4.962e-5
1.055, -6.909e-6, -4.997e-5
1.060, -6.946e-6, -5.032e-5
1.065, -6.981e-6, -5.067e-5
1.070, -7.010e-6, -5.102e-5
1.075, -7.037e-6, -5.137e-5
1.080, -7.059e-6, -5.172e-5
1.085, -7.083e-6, -5.207e-5
1.090, -7.101e-6, -5.243e-5
1.095, -7.110e-6, -5.279e-5
1.100, -6.709e-6, -5.312e-5

Segment 3:
1.095, -5.955e-6, -5.342e-5
1.090, -5.380e-6, -5.369e-5
1.085, -4.910e-6, -5.393e-5
1.080, -4.514e-6, -5.416e-5
1.075, -4.172e-6, -5.437e-5
1.070, -3.868e-6, -5.456e-5
1.065, -3.605e-6, -5.474e-5
1.060, -3.368e-6, -5.491e-5
1.055, -3.149e-6, -5.507e-5
1.050, -2.954e-6, -5.521e-5
1.045, -2.774e-6, -5.535e-5
1.040, -2.612e-6, -5.548e-5
1.035, -2.462e-6, -5.561e-5
1.030, -2.315e-6, -5.572e-5
1.025, -2.187e-6, -5.583e-5
1.020, -2.063e-6, -5.594e-5
1.015, -1.950e-6, -5.603e-5
1.010, -1.842e-6, -5.612e-5
1.005, -1.740e-6, -5.621e-5
1.000, -1.646e-6, -5.629e-5
0.995, -1.556e-6, -5.637e-5
0.990, -1.469e-6, -5.645e-5
0.985, -1.389e-6, -5.651e-5
0.980, -1.314e-6, -5.658e-5
0.975, -1.240e-6, -5.664e-5
0.970, -1.171e-6, -5.670e-5
0.965, -1.105e-6, -5.676e-5
0.960, -1.042e-6, -5.681e-5
0.955, -9.817e-7, -5.686e-5
0.950, -9.256e-7, -5.690e-5
0.945, -8.681e-7, -5.695e-5
0.940, -8.111e-7, -5.699e-5
0.935, -7.601e-7, -5.703e-5
0.930, -7.111e-7, -5.706e-5
0.925, -6.651e-7, -5.709e-5
0.920, -6.196e-7, -5.713e-5
0.915, -5.774e-7, -5.715e-5
0.910, -5.380e-7, -5.718e-5
0.905, -4.976e-7, -5.721e-5
0.900, -4.594e-7, -5.723e-5
0.895, -4.231e-7, -5.725e-5
0.890, -3.877e-7, -5.727e-5
0.885, -3.551e-7, -5.729e-5
0.880, -3.202e-7, -5.730e-5
0.875, -2.883e-7, -5.732e-5
0.870, -2.582e-7, -5.733e-5
0.865, -2.287e-7, -5.734e-5
0.860, -2.004e-7, -5.735e-5
0.855, -1.729e-7, -5.736e-5
0.850, -1.463e-7, -5.737e-5
0.845, -1.190e-7, -5.737e-5
0.840, -9.443e-8, -5.738e-5
0.835, -7.139e-8, -5.738e-5
0.830, -4.548e-8, -5.738e-5
0.825, -2.194e-8, -5.739e-5
0.820, -1.143e-9, -5.739e-5
0.815, 2.150e-8, -5.738e-5
0.810, 4.188e-8, -5.738e-5
0.805, 6.462e-8, -5.738e-5
0.800, 8.614e-8, -5.737e-5
0.795, 1.051e-7, -5.737e-5
0.790, 1.268e-7, -5.736e-5
0.785, 1.461e-7, -5.736e-5
0.780, 1.664e-7, -5.735e-5
0.775, 1.851e-7, -5.734e-5
0.770, 2.044e-7, -5.733e-5
0.765, 2.212e-7, -5.732e-5
0.760, 2.427e-7, -5.731e-5
0.755, 2.605e-7, -5.729e-5
0.750, 2.789e-7, -5.728e-5
0.745, 2.967e-7, -5.726e-5
0.740, 3.173e-7, -5.725e-5
0.735, 3.356e-7, -5.723e-5
0.730, 3.542e-7, -5.721e-5
0.725, 3.731e-7, -5.719e-5
0.720, 3.929e-7, -5.717e-5
0.715, 4.124e-7, -5.715e-5
0.710, 4.331e-7, -5.713e-5
0.705, 4.512e-7, -5.711e-5
0.700, 4.714e-7, -5.709e-5
0.695, 4.925e-7, -5.706e-5
0.690, 5.146e-7, -5.704e-5
0.685, 5.351e-7, -5.701e-5
0.680, 5.588e-7, -5.698e-5
0.675, 5.810e-7, -5.695e-5
0.670, 6.041e-7, -5.692e-5
0.665, 6.269e-7, -5.689e-5
0.660, 6.524e-7, -5.686e-5
0.655, 6.775e-7, -5.682e-5
0.650, 7.046e-7, -5.679e-5
0.645, 7.366e-7, -5.675e-5
0.640, 7.668e-7, -5.671e-5
0.635, 7.960e-7, -5.667e-5
0.630, 8.264e-7, -5.663e-5
0.625, 8.570e-7, -5.659e-5
0.620, 8.888e-7, -5.655e-5
0.615, 9.185e-7, -5.650e-5
0.610, 9.550e-7, -5.645e-5
0.605, 9.900e-7, -5.640e-5
0.600, 1.030e-6, -5.635e-5
0.595, 1.068e-6, -5.630e-5
0.590, 1.110e-6, -5.624e-5
0.585, 1.153e-6, -5.618e-5
0.580, 1.199e-6, -5.612e-5
0.575, 1.245e-6, -5.606e-5
0.570, 1.295e-6, -5.600e-5
0.565, 1.347e-6, -5.593e-5
0.560, 1.403e-6, -5.586e-5
0.555, 1.460e-6, -5.579e-5
0.550, 1.520e-6, -5.571e-5
0.545, 1.582e-6, -5.563e-5
0.540, 1.644e-6, -5.555e-5
0.535, 1.711e-6, -5.546e-5
0.530, 1.778e-6, -5.537e-5
0.525, 1.848e-6, -5.528e-5
0.520, 1.922e-6, -5.519e-5
0.515, 1.994e-6, -5.509e-5
0.510, 2.068e-6, -5.498e-5
0.505, 2.137e-6, -5.488e-5
0.500, 2.206e-6, -5.477e-5
0.495, 2.273e-6, -5.465e-5
0.490, 2.337e-6, -5.454e-5
0.485, 2.386e-6, -5.442e-5
0.480, 2.423e-6, -5.430e-5
0.475, 2.444e-6, -5.417e-5
0.470, 2.448e-6, -5.405e-5
0.465, 2.428e-6, -5.393e-5
0.460, 2.388e-6, -5.381e-5
0.455, 2.307e-6, -5.369e-5
0.450, 2.187e-6, -5.359e-5
0.445, 2.036e-6, -5.348e-5
0.440, 1.849e-6, -5.339e-5
0.435, 1.616e-6, -5.331e-5
0.430, 1.345e-6, -5.324e-5
0.425, 1.035e-6, -5.319e-5
0.420, 6.871e-7, -5.316e-5
0.415, 3.088e-7, -5.314e-5
0.410, -8.276e-8, -5.315e-5
0.405, -4.903e-7, -5.317e-5
0.400, -9.038e-7, -5.322e-5
0.395, -1.313e-6, -5.328e-5
0.390, -1.706e-6, -5.337e-5
0.385, -2.077e-6, -5.347e-5
0.380, -2.426e-6, -5.359e-5
0.375, -2.739e-6, -5.373e-5
0.370, -3.013e-6, -5.388e-5
0.365, -3.257e-6, -5.404e-5
0.360, -3.454e-6, -5.421e-5
0.355, -3.617e-6, -5.440e-5
0.350, -3.743e-6, -5.458e-5
0.345, -3.835e-6, -5.477e-5
0.340, -3.895e-6, -5.497e-5
0.335, -3.928e-6, -5.517e-5
0.330, -3.932e-6, -5.536e-5
0.325, -3.916e-6, -5.556e-5
0.320, -3.877e-6, -5.575e-5
0.315, -3.820e-6, -5.594e-5
0.310, -3.745e-6, -5.613e-5
0.305, -3.657e-6, -5.631e-5
0.300, -3.557e-6, -5.649e-5
0.295, -3.446e-6, -5.666e-5
0.290, -3.325e-6, -5.683e-5
0.285, -3.196e-6, -5.699e-5
0.280, -3.059e-6, -5.714e-5
0.275, -2.919e-6, -5.729e-5
0.270, -2.775e-6, -5.743e-5
0.265, -2.630e-6, -5.756e-5
0.260, -2.482e-6, -5.768e-5
0.255, -2.324e-6, -5.780e-5
0.250, -2.178e-6, -5.791e-5
0.245, -2.032e-6, -5.801e-5
0.240, -1.888e-6, -5.810e-5
0.235, -1.745e-6, -5.819e-5
0.230, -1.608e-6, -5.827e-5
0.225, -1.475e-6, -5.834e-5
0.220, -1.346e-6, -5.841e-5
0.215, -1.220e-6, -5.847e-5
0.210, -1.102e-6, -5.853e-5
0.205, -9.916e-7, -5.858e-5
0.200, -8.787e-7, -5.862e-5
0.195, -7.711e-7, -5.866e-5
0.190, -6.737e-7, -5.869e-5
0.185, -5.819e-7, -5.872e-5
0.180, -4.939e-7, -5.875e-5
0.175, -4.122e-7, -5.877e-5
0.170, -3.354e-7, -5.879e-5
0.165, -2.640e-7, -5.880e-5
0.160, -1.964e-7, -5.881e-5
0.155, -1.338e-7, -5.881e-5
0.150, -7.530e-8, -5.882e-5
0.145, -1.974e-8, -5.882e-5
0.140, 2.951e-8, -5.882e-5
0.135, 7.675e-8, -5.881e-5
0.130, 1.216e-7, -5.881e-5
0.125, 1.606e-7, -5.880e-5
0.120, 1.995e-7, -5.879e-5
0.115, 2.328e-7, -5.878e-5
0.110, 2.657e-7, -5.877e-5
0.105, 2.974e-7, -5.875e-5
0.100, 3.250e-7, -5.873e-5
0.095, 3.494e-7, -5.872e-5
0.090, 3.734e-7, -5.870e-5
0.085, 3.957e-7, -5.868e-5
0.080, 4.154e-7, -5.866e-5
0.075, 4.345e-7, -5.864e-5
0.070, 4.503e-7, -5.861e-5
0.065, 4.664e-7, -5.859e-5
0.060, 4.843e-7, -5.857e-5
0.055, 4.963e-7, -5.854e-5
0.050, 5.114e-7, -5.852e-5
0.045, 5.226e-7, -5.849e-5
0.040, 5.356e-7, -5.846e-5
0.035, 5.450e-7, -5.844e-5
0.030, 5.585e-7, -5.841e-5
0.025, 5.684e-7, -5.838e-5
0.020, 5.822e-7, -5.835e-5
0.015, 5.925e-7, -5.832e-5
0.010, 6.062e-7, -5.829e-5
0.005, 6.171e-7, -5.826e-5
0.000, 6.315e-7, -5.823e-5
-0.005, 6.460e-7, -5.819e-5
-0.010, 6.640e-7, -5.816e-5
-0.015, 6.830e-7, -5.813e-5
-0.020, 7.041e-7, -5.809e-5
-0.025, 7.296e-7, -5.806e-5
-0.030, 7.579e-7, -5.802e-5
-0.035, 7.859e-7, -5.798e-5
-0.040, 8.152e-7, -5.794e-5
-0.045, 8.461e-7, -5.790e-5
-0.050, 8.821e-7, -5.785e-5
-0.055, 9.191e-7, -5.781e-5
-0.060, 9.582e-7, -5.776e-5
-0.065, 1.000e-6, -5.771e-5
-0.070, 1.048e-6, -5.766e-5
-0.075, 1.094e-6, -5.760e-5
-0.080, 1.147e-6, -5.754e-5
-0.085, 1.199e-6, -5.748e-5
-0.090, 1.256e-6, -5.742e-5
-0.095, 1.318e-6, -5.735e-5
-0.100, 1.383e-6, -5.729e-5
-0.105, 1.434e-6, -5.721e-5
-0.110, 1.500e-6, -5.714e-5
-0.115, 1.561e-6, -5.706e-5
-0.120, 1.621e-6, -5.698e-5
-0.125, 1.681e-6, -5.690e-5
-0.130, 1.738e-6, -5.681e-5
-0.135, 1.794e-6, -5.672e-5
-0.140, 1.851e-6, -5.663e-5
-0.145, 1.907e-6, -5.653e-5
-0.150, 1.964e-6, -5.643e-5
-0.155, 2.009e-6, -5.633e-5
-0.160, 2.057e-6, -5.623e-5
-0.165, 2.105e-6, -5.612e-5
-0.170, 2.143e-6, -5.602e-5
-0.175, 2.182e-6, -5.591e-5
-0.180, 2.219e-6, -5.580e-5
-0.185, 2.266e-6, -5.568e-5
-0.190, 2.304e-6, -5.557e-5
-0.195, 2.338e-6, -5.545e-5
-0.200, 2.366e-6, -5.533e-5
-0.205, 2.388e-6, -5.521e-5
-0.210, 2.432e-6, -5.509e-5
-0.215, 2.455e-6, -5.497e-5
-0.220, 2.489e-6, -5.485e-5
-0.225, 2.521e-6, -5.472e-5
-0.230, 2.546e-6, -5.459e-5
-0.235, 2.578e-6, -5.446e-5
-0.240, 2.616e-6, -5.433e-5
-0.245, 2.641e-6, -5.420e-5
-0.250, 2.680e-6, -5.407e-5
-0.255, 2.719e-6, -5.393e-5
-0.260, 2.751e-6, -5.379e-5
-0.265, 2.794e-6, -5.365e-5
-0.270, 2.845e-6, -5.351e-5
-0.275, 2.901e-6, -5.337e-5
-0.280, 2.990e-6, -5.322e-5
-0.285, 3.098e-6, -5.306e-5
-0.290, 1.726e-6, -5.297e-5

Segment 4:
-0.285, 6.591e-7, -5.294e-5
-0.280, 2.902e-7, -5.293e-5
-0.275, 6.853e-8, -5.292e-5
-0.270, -1.047e-7, -5.293e-5
-0.265, -2.362e-7, -5.294e-5
-0.260, -3.569e-7, -5.296e-5
-0.255, -4.554e-7, -5.298e-5
-0.250, -5.470e-7, -5.301e-5
-0.245, -6.304e-7, -5.304e-5
-0.240, -7.108e-7, -5.308e-5
-0.235, -7.873e-7, -5.312e-5
-0.230, -8.595e-7, -5.316e-5
-0.225, -9.286e-7, -5.320e-5
-0.220, -9.877e-7, -5.325e-5
-0.215, -1.043e-6, -5.331e-5
-0.210, -1.088e-6, -5.336e-5
-0.205, -1.115e-6, -5.342e-5
-0.200, -1.169e-6, -5.347e-5
-0.195, -1.202e-6, -5.354e-5
-0.190, -1.233e-6, -5.360e-5
-0.185, -1.249e-6, -5.366e-5
-0.180, -1.268e-6, -5.372e-5
-0.175, -1.278e-6, -5.379e-5
-0.170, -1.290e-6, -5.385e-5
-0.165, -1.295e-6, -5.392e-5
-0.160, -1.295e-6, -5.398e-5
-0.155, -1.298e-6, -5.405e-5
-0.150, -1.284e-6, -5.411e-5
-0.145, -1.270e-6, -5.417e-5
-0.140, -1.256e-6, -5.424e-5
-0.135, -1.238e-6, -5.430e-5
-0.130, -1.218e-6, -5.436e-5
-0.125, -1.195e-6, -5.442e-5
-0.120, -1.171e-6, -5.448e-5
-0.115, -1.147e-6, -5.453e-5
-0.110, -1.121e-6, -5.459e-5
-0.105, -1.093e-6, -5.465e-5
-0.100, -1.061e-6, -5.470e-5
-0.095, -1.031e-6, -5.475e-5
-0.090, -9.983e-7, -5.480e-5
-0.085, -9.687e-7, -5.485e-5
-0.080, -9.384e-7, -5.489e-5
-0.075, -9.086e-7, -5.494e-5
-0.070, -8.771e-7, -5.498e-5
-0.065, -8.520e-7, -5.503e-5
-0.060, -8.217e-7, -5.507e-5
-0.055, -7.952e-7, -5.511e-5
-0.050, -7.748e-7, -5.515e-5
-0.045, -7.541e-7, -5.518e-5
-0.040, -7.384e-7, -5.522e-5
-0.035, -7.202e-7, -5.526e-5
-0.030, -7.072e-7, -5.529e-5
-0.025, -6.935e-7, -5.533e-5
-0.020, -6.833e-7, -5.536e-5
-0.015, -6.735e-7, -5.539e-5
-0.010, -6.650e-7, -5.543e-5
-0.005, -6.601e-7, -5.546e-5
-0.000, -6.557e-7, -5.549e-5
0.005, -6.548e-7, -5.553e-5
0.010, -6.524e-7, -5.556e-5
0.015, -6.527e-7, -5.559e-5
0.020, -6.536e-7, -5.562e-5
0.025, -6.555e-7, -5.566e-5
0.030, -6.582e-7, -5.569e-5
0.035, -6.609e-7, -5.572e-5
0.040, -6.663e-7, -5.576e-5
0.045, -6.749e-7, -5.579e-5
0.050, -6.829e-7, -5.582e-5
0.055, -6.910e-7, -5.586e-5
0.060, -7.036e-7, -5.589e-5
0.065, -7.133e-7, -5.593e-5
0.070, -7.282e-7, -5.597e-5
0.075, -7.421e-7, -5.600e-5
0.080, -7.566e-7, -5.604e-5
0.085, -7.719e-7, -5.608e-5
0.090, -7.874e-7, -5.612e-5
0.095, -8.051e-7, -5.616e-5
0.100, -8.274e-7, -5.620e-5
0.105, -8.511e-7, -5.624e-5
0.110, -8.694e-7, -5.629e-5
0.115, -8.892e-7, -5.633e-5
0.120, -9.115e-7, -5.638e-5
0.125, -9.355e-7, -5.642e-5
0.130, -9.563e-7, -5.647e-5
0.135, -9.796e-7, -5.652e-5
0.140, -1.004e-6, -5.657e-5
0.145, -1.029e-6, -5.662e-5
0.150, -1.054e-6, -5.667e-5
0.155, -1.081e-6, -5.673e-5
0.160, -1.109e-6, -5.678e-5
0.165, -1.138e-6, -5.684e-5
0.170, -1.164e-6, -5.690e-5
0.175, -1.192e-6, -5.696e-5
0.180, -1.226e-6, -5.702e-5
0.185, -1.257e-6, -5.708e-5
0.190, -1.290e-6, -5.715e-5
0.195, -1.327e-6, -5.721e-5
0.200, -1.360e-6, -5.728e-5
0.205, -1.394e-6, -5.735e-5
0.210, -1.435e-6, -5.742e-5
0.215, -1.474e-6, -5.750e-5
0.220, -1.517e-6, -5.757e-5
0.225, -1.559e-6, -5.765e-5
0.230, -1.603e-6, -5.773e-5
0.235, -1.649e-6, -5.781e-5
0.240, -1.697e-6, -5.790e-5
0.245, -1.745e-6, -5.799e-5
0.250, -1.796e-6, -5.808e-5
0.255, -1.848e-6, -5.817e-5
0.260, -1.901e-6, -5.826e-5
0.265, -1.955e-6, -5.836e-5
0.270, -2.013e-6, -5.846e-5
0.275, -2.070e-6, -5.856e-5
0.280, -2.129e-6, -5.867e-5
0.285, -2.191e-6, -5.878e-5
0.290, -2.254e-6, -5.889e-5
0.295, -2.321e-6, -5.901e-5
0.300, -2.392e-6, -5.913e-5
0.305, -2.468e-6, -5.925e-5
0.310, -2.542e-6, -5.938e-5
0.315, -2.621e-6, -5.951e-5
0.320, -2.703e-6, -5.965e-5
0.325, -2.789e-6, -5.979e-5
0.330, -2.884e-6, -5.993e-5
0.335, -2.981e-6, -6.008e-5
0.340, -3.087e-6, -6.023e-5
0.345, -3.206e-6, -6.039e-5
0.350, -3.331e-6, -6.056e-5
0.355, -3.464e-6, -6.073e-5
0.360, -3.609e-6, -6.091e-5
0.365, -3.763e-6, -6.110e-5
0.370, -3.933e-6, -6.130e-5
0.375, -4.120e-6, -6.150e-5
0.380, -4.314e-6, -6.172e-5
0.385, -4.526e-6, -6.195e-5
0.390, -4.750e-6, -6.218e-5
0.395, -4.990e-6, -6.243e-5
0.400, -5.244e-6, -6.270e-5
0.405, -5.513e-6, -6.297e-5
0.410, -5.792e-6, -6.326e-5
0.415, -6.077e-6, -6.356e-5
0.420, -6.369e-6, -6.388e-5
0.425, -6.663e-6, -6.422e-5
0.430, -6.957e-6, -6.456e-5
0.435, -7.258e-6, -6.493e-5
0.440, -7.552e-6, -6.530e-5
0.445, -7.847e-6, -6.570e-5
0.450, -8.143e-6, -6.610e-5
0.455, -8.437e-6, -6.653e-5
0.460, -8.730e-6, -6.696e-5
0.465, -8.996e-6, -6.741e-5
0.470, -9.222e-6, -6.787e-5
0.475, -9.401e-6, -6.834e-5
0.480, -9.533e-6, -6.882e-5
0.485, -9.612e-6, -6.930e-5
0.490, -9.647e-6, -6.978e-5
0.495, -9.651e-6, -7.027e-5
0.500, -9.620e-6, -7.075e-5
0.505, -9.553e-6, -7.122e-5
0.510, -9.447e-6, -7.170e-5
0.515, -9.301e-6, -7.216e-5
0.520, -9.127e-6, -7.262e-5
0.525, -8.928e-6, -7.306e-5
0.530, -8.708e-6, -7.350e-5
0.535, -8.468e-6, -7.392e-5
0.540, -8.234e-6, -7.433e-5
0.545, -7.993e-6, -7.473e-5
0.550, -7.757e-6, -7.512e-5
0.555, -7.521e-6, -7.550e-5
0.560, -7.291e-6, -7.586e-5
0.565, -7.065e-6, -7.622e-5
0.570, -6.840e-6, -7.656e-5
0.575, -6.627e-6, -7.689e-5
0.580, -6.424e-6, -7.721e-5
0.585, -6.221e-6, -7.752e-5
0.590, -6.033e-6, -7.782e-5
0.595, -5.850e-6, -7.812e-5
0.600, -5.677e-6, -7.840e-5
0.605, -5.510e-6, -7.868e-5
0.610, -5.347e-6, -7.894e-5
0.615, -5.189e-6, -7.920e-5
0.620, -5.050e-6, -7.945e-5
0.625, -4.916e-6, -7.970e-5
0.630, -4.788e-6, -7.994e-5
0.635, -4.667e-6, -8.017e-5
0.640, -4.550e-6, -8.040e-5
0.645, -4.443e-6, -8.062e-5
0.650, -4.339e-6, -8.084e-5
0.655, -4.243e-6, -8.105e-5
0.660, -4.151e-6, -8.126e-5
0.665, -4.069e-6, -8.146e-5
0.670, -3.982e-6, -8.166e-5
0.675, -3.902e-6, -8.186e-5
0.680, -3.833e-6, -8.205e-5
0.685, -3.766e-6, -8.224e-5
0.690, -3.703e-6, -8.242e-5
0.695, -3.649e-6, -8.260e-5
0.700, -3.595e-6, -8.278e-5
0.705, -3.549e-6, -8.296e-5
0.710, -3.504e-6, -8.314e-5
0.715, -3.472e-6, -8.331e-5
0.720, -3.435e-6, -8.348e-5
0.725, -3.403e-6, -8.365e-5
0.730, -3.377e-6, -8.382e-5
0.735, -3.353e-6, -8.399e-5
0.740, -3.330e-6, -8.416e-5
0.745, -3.315e-6, -8.432e-5
0.750, -3.300e-6, -8.449e-5
0.755, -3.293e-6, -8.465e-5
0.760, -3.286e-6, -8.482e-5
0.765, -3.285e-6, -8.498e-5
0.770, -3.287e-6, -8.514e-5
0.775, -3.289e-6, -8.531e-5
0.780, -3.294e-6, -8.547e-5
0.785, -3.303e-6, -8.564e-5
0.790, -3.317e-6, -8.580e-5
0.795, -3.334e-6, -8.597e-5
0.800, -3.355e-6, -8.614e-5
0.805, -3.379e-6, -8.631e-5
0.810, -3.406e-6, -8.648e-5
0.815, -3.438e-6, -8.665e-5
0.820, -3.470e-6, -8.682e-5
0.825, -3.507e-6, -8.700e-5
0.830, -3.548e-6, -8.718e-5
0.835, -3.593e-6, -8.736e-5
0.840, -3.641e-6, -8.754e-5
0.845, -3.691e-6, -8.772e-5
0.850, -3.745e-6, -8.791e-5
0.855, -3.803e-6, -8.810e-5
0.860, -3.864e-6, -8.829e-5
0.865, -3.928e-6, -8.849e-5
0.870, -4.004e-6, -8.869e-5
0.875, -4.074e-6, -8.889e-5
0.880, -4.146e-6, -8.910e-5
0.885, -4.223e-6, -8.931e-5
0.890, -4.301e-6, -8.953e-5
0.895, -4.385e-6, -8.975e-5
0.900, -4.472e-6, -8.997e-5
0.905, -4.559e-6, -9.020e-5
0.910, -4.650e-6, -9.043e-5
0.915, -4.745e-6, -9.067e-5
0.920, -4.842e-6, -9.091e-5
0.925, -4.941e-6, -9.116e-5
0.930, -5.040e-6, -9.141e-5
0.935, -5.140e-6, -9.167e-5
0.940, -5.242e-6, -9.193e-5
0.945, -5.342e-6, -9.219e-5
0.950, -5.444e-6, -9.247e-5
0.955, -5.552e-6, -9.274e-5
0.960, -5.654e-6, -9.303e-5
0.965, -5.754e-6, -9.331e-5
0.970, -5.853e-6, -9.361e-5
0.975, -5.953e-6, -9.390e-5
0.980, -6.047e-6, -9.421e-5
0.985, -6.139e-6, -9.451e-5
0.990, -6.230e-6, -9.483e-5
0.995, -6.319e-6, -9.514e-5
1.000, -6.404e-6, -9.546e-5
1.005, -6.486e-6, -9.579e-5
1.010, -6.564e-6, -9.611e-5
1.015, -6.636e-6, -9.645e-5
1.020, -6.708e-6, -9.678e-5
1.025, -6.767e-6, -9.712e-5
1.030, -6.830e-6, -9.746e-5
1.035, -6.889e-6, -9.781e-5
1.040, -6.943e-6, -9.815e-5
1.045, -6.995e-6, -9.850e-5
1.050, -7.038e-6, -9.885e-5
1.055, -7.085e-6, -9.921e-5
1.060, -7.124e-6, -9.956e-5
1.065, -7.154e-6, -9.992e-5
1.070, -7.187e-6, -1.003e-4
1.075, -7.211e-6, -1.006e-4
1.080, -7.232e-6, -1.010e-4
1.085, -7.245e-6, -1.014e-4
1.090, -7.260e-6, -1.017e-4
1.095, -7.272e-6, -1.021e-4
1.100, -6.859e-6, -1.024e-4

Segment 5:
1.095, -6.118e-6, -1.027e-4
1.090, -5.561e-6, -1.030e-4
1.085, -5.101e-6, -1.033e-4
1.080, -4.714e-6, -1.035e-4
1.075, -4.378e-6, -1.037e-4
1.070, -4.083e-6, -1.039e-4
1.065, -3.813e-6, -1.041e-4
1.060, -3.576e-6, -1.043e-4
1.055, -3.360e-6, -1.045e-4
1.050, -3.160e-6, -1.046e-4
1.045, -2.974e-6, -1.048e-4
1.040, -2.806e-6, -1.049e-4
1.035, -2.650e-6, -1.051e-4
1.030, -2.504e-6, -1.052e-4
1.025, -2.364e-6, -1.053e-4
1.020, -2.233e-6, -1.054e-4
1.015, -2.112e-6, -1.055e-4
1.010, -1.997e-6, -1.056e-4
1.005, -1.889e-6, -1.057e-4
1.000, -1.788e-6, -1.058e-4
0.995, -1.690e-6, -1.059e-4
0.990, -1.598e-6, -1.060e-4
0.985, -1.511e-6, -1.060e-4
0.980, -1.427e-6, -1.061e-4
0.975, -1.347e-6, -1.062e-4
0.970, -1.272e-6, -1.062e-4
0.965, -1.199e-6, -1.063e-4
0.960, -1.131e-6, -1.064e-4
0.955, -1.065e-6, -1.064e-4
0.950, -1.003e-6, -1.065e-4
0.945, -9.447e-7, -1.065e-4
0.940, -8.848e-7, -1.065e-4
0.935, -8.268e-7, -1.066e-4
0.930, -7.695e-7, -1.066e-4
0.925, -7.202e-7, -1.067e-4
0.920, -6.701e-7, -1.067e-4
0.915, -6.250e-7, -1.067e-4
0.910, -5.790e-7, -1.068e-4
0.905, -5.383e-7, -1.068e-4
0.900, -4.957e-7, -1.068e-4
0.895, -4.571e-7, -1.068e-4
0.890, -4.172e-7, -1.069e-4
0.885, -3.799e-7, -1.069e-4
0.880, -3.465e-7, -1.069e-4
0.875, -3.107e-7, -1.069e-4
0.870, -2.765e-7, -1.069e-4
0.865, -2.465e-7, -1.069e-4
0.860, -2.144e-7, -1.069e-4
0.855, -1.849e-7, -1.070e-4
0.850, -1.581e-7, -1.070e-4
0.845, -1.292e-7, -1.070e-4
0.840, -1.011e-7, -1.070e-4
0.835, -7.560e-8, -1.070e-4
0.830, -5.040e-8, -1.070e-4
0.825, -2.508e-8, -1.070e-4
0.820, -2.219e-9, -1.070e-4
0.815, 2.132e-8, -1.070e-4
0.810, 4.332e-8, -1.070e-4
0.805, 6.661e-8, -1.070e-4
0.800, 8.992e-8, -1.070e-4
0.795, 1.102e-7, -1.070e-4
0.790, 1.320e-7, -1.070e-4
0.785, 1.517e-7, -1.069e-4
0.780, 1.725e-7, -1.069e-4
0.775, 1.933e-7, -1.069e-4
0.770, 2.140e-7, -1.069e-4
0.765, 2.322e-7, -1.069e-4
0.760, 2.516e-7, -1.069e-4
0.755, 2.702e-7, -1.069e-4
0.750, 2.914e-7, -1.069e-4
0.745, 3.091e-7, -1.069e-4
0.740, 3.298e-7, -1.068e-4
0.735, 3.484e-7, -1.068e-4
0.730, 3.682e-7, -1.068e-4
0.725, 3.892e-7, -1.068e-4
0.720, 4.090e-7, -1.068e-4
0.715, 4.283e-7, -1.067e-4
0.710, 4.473e-7, -1.067e-4
0.705, 4.684e-7, -1.067e-4
0.700, 4.898e-7, -1.067e-4
0.695, 5.107e-7, -1.066e-4
0.690, 5.338e-7, -1.066e-4
0.685, 5.542e-7, -1.066e-4
0.680, 5.796e-7, -1.066e-4
0.675, 6.012e-7, -1.065e-4
0.670, 6.251e-7, -1.065e-4
0.665, 6.502e-7, -1.065e-4
0.660, 6.764e-7, -1.064e-4
0.655, 7.025e-7, -1.064e-4
0.650, 7.356e-7, -1.064e-4
0.645, 7.659e-7, -1.063e-4
0.640, 7.945e-7, -1.063e-4
0.635, 8.249e-7, -1.062e-4
0.630, 8.560e-7, -1.062e-4
0.625, 8.878e-7, -1.062e-4
0.620, 9.218e-7, -1.061e-4
0.615, 9.515e-7, -1.061e-4
0.610, 9.901e-7, -1.060e-4
0.605, 1.027e-6, -1.060e-4
0.600, 1.068e-6, -1.059e-4
0.595, 1.110e-6, -1.058e-4
0.590, 1.155e-6, -1.058e-4
0.585, 1.199e-6, -1.057e-4
0.580, 1.249e-6, -1.057e-4
0.575, 1.298e-6, -1.056e-4
0.570, 1.352e-6, -1.055e-4
0.565, 1.409e-6, -1.055e-4
0.560, 1.469e-6, -1.054e-4
0.555, 1.531e-6, -1.053e-4
0.550, 1.595e-6, -1.052e-4
0.545, 1.660e-6, -1.052e-4
0.540, 1.731e-6, -1.051e-4
0.535, 1.803e-6, -1.050e-4
0.530, 1.880e-6, -1.049e-4
0.525, 1.958e-6, -1.048e-4
0.520, 2.038e-6, -1.047e-4
0.515, 2.119e-6, -1.046e-4
0.510, 2.201e-6, -1.045e-4
0.505, 2.281e-6, -1.044e-4
0.500, 2.363e-6, -1.042e-4
0.495, 2.433e-6, -1.041e-4
0.490, 2.496e-6, -1.040e-4
0.485, 2.543e-6, -1.039e-4
0.480, 2.580e-6, -1.037e-4
0.475, 2.594e-6, -1.036e-4
0.470, 2.586e-6, -1.035e-4
0.465, 2.547e-6, -1.033e-4
0.460, 2.476e-6, -1.032e-4
0.455, 2.361e-6, -1.031e-4
0.450, 2.190e-6, -1.030e-4
0.445, 1.981e-6, -1.029e-4
0.440, 1.717e-6, -1.028e-4
0.435, 1.396e-6, -1.027e-4
0.430, 1.025e-6, -1.027e-4
0.425, 5.972e-7, -1.027e-4
0.420, 1.331e-7, -1.027e-4
0.415, -3.658e-7, -1.027e-4
0.410, -8.911e-7, -1.027e-4
0.405, -1.429e-6, -1.028e-4
0.400, -1.962e-6, -1.029e-4
0.395, -2.490e-6, -1.030e-4
0.390, -2.989e-6, -1.032e-4
0.385, -3.457e-6, -1.033e-4
0.380, -3.879e-6, -1.035e-4
0.375, -4.256e-6, -1.037e-4
0.370, -4.579e-6, -1.040e-4
0.365, -4.848e-6, -1.042e-4
0.360, -5.068e-6, -1.045e-4
0.355, -5.238e-6, -1.047e-4
0.350, -5.362e-6, -1.050e-4
0.345, -5.445e-6, -1.053e-4
0.340, -5.487e-6, -1.055e-4
0.335, -5.494e-6, -1.058e-4
0.330, -5.470e-6, -1.061e-4
0.325, -5.418e-6, -1.064e-4
0.320, -5.340e-6, -1.066e-4
0.315, -5.241e-6, -1.069e-4
0.310, -5.122e-6, -1.071e-4
0.305, -4.987e-6, -1.074e-4
0.300, -4.837e-6, -1.076e-4
0.295, -4.676e-6, -1.079e-4
0.290, -4.503e-6, -1.081e-4
0.285, -4.321e-6, -1.083e-4
0.280, -4.135e-6, -1.085e-4
0.275, -3.935e-6, -1.087e-4
0.270, -3.736e-6, -1.089e-4
0.265, -3.535e-6, -1.091e-4
0.260, -3.334e-6, -1.092e-4
0.255, -3.129e-6, -1.094e-4
0.250, -2.928e-6, -1.095e-4
0.245, -2.734e-6, -1.097e-4
0.240, -2.541e-6, -1.098e-4
0.235, -2.350e-6, -1.099e-4
0.230, -2.169e-6, -1.100e-4
0.225, -1.994e-6, -1.101e-4
0.220, -1.827e-6, -1.102e-4
0.215, -1.668e-6, -1.103e-4
0.210, -1.515e-6, -1.104e-4
0.205, -1.374e-6, -1.105e-4
0.200, -1.235e-6, -1.105e-4
0.195, -1.105e-6, -1.106e-4
0.190, -9.825e-7, -1.106e-4
0.185, -8.676e-7, -1.107e-4
0.180, -7.556e-7, -1.107e-4
0.175, -6.549e-7, -1.107e-4
0.170, -5.615e-7, -1.108e-4
0.165, -4.729e-7, -1.108e-4
0.160, -3.900e-7, -1.108e-4
0.155, -3.147e-7, -1.108e-4
0.150, -2.434e-7, -1.108e-4
0.145, -1.779e-7, -1.108e-4
0.140, -1.167e-7, -1.108e-4
0.135, -6.028e-8, -1.109e-4
0.130, -7.859e-9, -1.109e-4
0.125, 3.955e-8, -1.108e-4
0.120, 8.604e-8, -1.108e-4
0.115, 1.278e-7, -1.108e-4
0.110, 1.659e-7, -1.108e-4
0.105, 2.035e-7, -1.108e-4
0.100, 2.358e-7, -1.108e-4
0.095, 2.658e-7, -1.108e-4
0.090, 2.954e-7, -1.108e-4
0.085, 3.224e-7, -1.108e-4
0.080, 3.469e-7, -1.107e-4
0.075, 3.703e-7, -1.107e-4
0.070, 3.915e-7, -1.107e-4
0.065, 4.115e-7, -1.107e-4
0.060, 4.305e-7, -1.107e-4
0.055, 4.456e-7, -1.106e-4
0.050, 4.639e-7, -1.106e-4
0.045, 4.806e-7, -1.106e-4
0.040, 4.938e-7, -1.106e-4
0.035, 5.088e-7, -1.105e-4
0.030, 5.230e-7, -1.105e-4
0.025, 5.355e-7, -1.105e-4
0.020, 5.484e-7, -1.105e-4
0.015, 5.628e-7, -1.104e-4
0.010, 5.791e-7, -1.104e-4
0.005, 5.924e-7, -1.104e-4
0.000, 6.081e-7, -1.103e-4
-0.005, 6.240e-7, -1.103e-4
-0.010, 6.421e-7, -1.103e-4
-0.015, 6.606e-7, -1.103e-4
-0.020, 6.845e-7, -1.102e-4
-0.025, 7.062e-7, -1.102e-4
-0.030, 7.374e-7, -1.101e-4
-0.035, 7.663e-7, -1.101e-4
-0.040, 7.981e-7, -1.101e-4
-0.045, 8.282e-7, -1.100e-4
-0.050, 8.653e-7, -1.100e-4
-0.055, 8.998e-7, -1.099e-4
-0.060, 9.402e-7, -1.099e-4
-0.065, 9.832e-7, -1.098e-4
-0.070, 1.030e-6, -1.098e-4
-0.075, 1.076e-6, -1.097e-4
-0.080, 1.129e-6, -1.097e-4
-0.085, 1.184e-6, -1.096e-4
-0.090, 1.237e-6, -1.096e-4
-0.095, 1.297e-6, -1.095e-4
-0.100, 1.360e-6, -1.094e-4
-0.105, 1.416e-6, -1.094e-4
-0.110, 1.479e-6, -1.093e-4
-0.115, 1.542e-6, -1.092e-4
-0.120, 1.608e-6, -1.091e-4
-0.125, 1.663e-6, -1.090e-4
-0.130, 1.728e-6, -1.090e-4
-0.135, 1.779e-6, -1.089e-4
-0.140, 1.841e-6, -1.088e-4
-0.145, 1.892e-6, -1.087e-4
-0.150, 1.950e-6, -1.086e-4
-0.155, 2.001e-6, -1.085e-4
-0.160, 2.041e-6, -1.084e-4
-0.165, 2.083e-6, -1.083e-4
-0.170, 2.123e-6, -1.082e-4
-0.175, 2.160e-6, -1.081e-4
-0.180, 2.197e-6, -1.080e-4
-0.185, 2.223e-6, -1.078e-4
-0.190, 2.256e-6, -1.077e-4
-0.195, 2.278e-6, -1.076e-4
-0.200, 2.312e-6, -1.075e-4
-0.205, 2.320e-6, -1.074e-4
-0.210, 2.356e-6, -1.073e-4
-0.215, 2.369e-6, -1.071e-4
-0.220, 2.394e-6, -1.070e-4
-0.225, 2.415e-6, -1.069e-4
-0.230, 2.423e-6, -1.068e-4
-0.235, 2.452e-6, -1.067e-4
-0.240, 2.472e-6, -1.065e-4
-0.245, 2.491e-6, -1.064e-4
-0.250, 2.514e-6, -1.063e-4
-0.255, 2.549e-6, -1.062e-4
-0.260, 2.567e-6, -1.060e-4
-0.265, 2.608e-6, -1.059e-4
-0.270, 2.650e-6, -1.058e-4
-0.275, 2.708e-6, -1.056e-4
-0.280, 2.783e-6, -1.055e-4
-0.285, 2.884e-6, -1.054e-4
-0.290, 1.577e-6, -1.053e-4

Segment 6:
-0.285, 5.781e-7, -1.052e-4
-0.280, 2.652e-7, -1.052e-4
-0.275, 5.000e-8, -1.052e-4
-0.270, -9.373e-8, -1.052e-4
-0.265, -2.129e-7, -1.052e-4
-0.260, -3.147e-7, -1.053e-4
-0.255, -4.061e-7, -1.053e-4
-0.250, -4.860e-7, -1.053e-4
-0.245, -5.638e-7, -1.053e-4
-0.240, -6.387e-7, -1.054e-4
-0.235, -7.174e-7, -1.054e-4
-0.230, -7.806e-7, -1.054e-4
-0.225, -8.531e-7, -1.055e-4
-0.220, -9.182e-7, -1.055e-4
-0.215, -9.761e-7, -1.056e-4
-0.210, -1.022e-6, -1.056e-4
-0.205, -1.055e-6, -1.057e-4
-0.200, -1.112e-6, -1.057e-4
-0.195, -1.155e-6, -1.058e-4
-0.190, -1.185e-6, -1.059e-4
-0.185, -1.207e-6, -1.059e-4
-0.180, -1.231e-6, -1.060e-4
-0.175, -1.244e-6, -1.060e-4
-0.170, -1.251e-6, -1.061e-4
-0.165, -1.256e-6, -1.062e-4
-0.160, -1.258e-6, -1.062e-4
-0.155, -1.258e-6, -1.063e-4
-0.150, -1.235e-6, -1.063e-4
-0.145, -1.220e-6, -1.064e-4
-0.140, -1.198e-6, -1.065e-4
-0.135, -1.176e-6, -1.065e-4
-0.130, -1.153e-6, -1.066e-4
-0.125, -1.129e-6, -1.066e-4
-0.120, -1.098e-6, -1.067e-4
-0.115, -1.069e-6, -1.068e-4
-0.110, -1.036e-6, -1.068e-4
-0.105, -1.013e-6, -1.069e-4
-0.100, -9.797e-7, -1.069e-4
-0.095, -9.474e-7, -1.070e-4
-0.090, -9.120e-7, -1.070e-4
-0.085, -8.854e-7, -1.070e-4
-0.080, -8.564e-7, -1.071e-4
-0.075, -8.269e-7, -1.071e-4
-0.070, -7.948e-7, -1.072e-4
-0.065, -7.712e-7, -1.072e-4
-0.060, -7.507e-7, -1.072e-4
-0.055, -7.304e-7, -1.073e-4
-0.050, -7.111e-7, -1.073e-4
-0.045, -6.940e-7, -1.073e-4
-0.040, -6.801e-7, -1.074e-4
-0.035, -6.665e-7, -1.074e-4
-0.030, -6.565e-7, -1.074e-4
-0.025, -6.454e-7, -1.075e-4
-0.020, -6.369e-7, -1.075e-4
-0.015, -6.319e-7, -1.075e-4
-0.010, -6.254e-7, -1.076e-4
-0.005, -6.201e-7, -1.076e-4
-0.000, -6.155e-7, -1.076e-4
0.005, -6.149e-7, -1.077e-4
0.010, -6.143e-7, -1.077e-4
0.015, -6.148e-7, -1.077e-4
0.020, -6.165e-7, -1.078e-4
0.025, -6.201e-7, -1.078e-4
0.030, -6.243e-7, -1.078e-4
0.035, -6.304e-7, -1.079e-4
0.040, -6.346e-7, -1.079e-4
0.045, -6.406e-7, -1.079e-4
0.050, -6.510e-7, -1.079e-4
0.055, -6.585e-7, -1.080e-4
0.060, -6.675e-7, -1.080e-4
0.065, -6.808e-7, -1.080e-4
0.070, -6.909e-7, -1.081e-4
0.075, -7.057e-7, -1.081e-4
0.080, -7.194e-7, -1.082e-4
0.085, -7.358e-7, -1.082e-4
0.090, -7.524e-7, -1.082e-4
0.095, -7.674e-7, -1.083e-4
0.100, -7.855e-7, -1.083e-4
0.105, -8.040e-7, -1.083e-4
0.110, -8.263e-7, -1.084e-4
0.115, -8.520e-7, -1.084e-4
0.120, -8.726e-7, -1.085e-4
0.125, -8.923e-7, -1.085e-4
0.130, -9.184e-7, -1.086e-4
0.135, -9.435e-7, -1.086e-4
0.140, -9.659e-7, -1.087e-4
0.145, -9.898e-7, -1.087e-4
0.150, -1.019e-6, -1.088e-4
0.155, -1.047e-6, -1.088e-4
0.160, -1.074e-6, -1.089e-4
0.165, -1.103e-6, -1.089e-4
0.170, -1.136e-6, -1.090e-4
0.175, -1.166e-6, -1.090e-4
0.180, -1.199e-6, -1.091e-4
0.185, -1.235e-6, -1.092e-4
0.190, -1.270e-6, -1.092e-4
0.195, -1.309e-6, -1.093e-4
0.200, -1.349e-6, -1.094e-4
0.205, -1.386e-6, -1.094e-4
0.210, -1.431e-6, -1.095e-4
0.215, -1.475e-6, -1.096e-4
0.220, -1.522e-6, -1.096e-4
0.225, -1.569e-6, -1.097e-4
0.230, -1.619e-6, -1.098e-4
0.235, -1.671e-6, -1.099e-4
0.240, -1.724e-6, -1.100e-4
0.245, -1.778e-6, -1.101e-4
0.250, -1.834e-6, -1.102e-4
0.255, -1.893e-6, -1.103e-4
0.260, -1.952e-6, -1.103e-4
0.265, -2.013e-6, -1.104e-4
0.270, -2.075e-6, -1.106e-4
0.275, -2.139e-6, -1.107e-4
0.280, -2.203e-6, -1.108e-4
0.285, -2.269e-6, -1.109e-4
0.290, -2.338e-6, -1.110e-4
0.295, -2.414e-6, -1.111e-4
0.300, -2.489e-6, -1.112e-4
0.305, -2.563e-6, -1.114e-4
0.310, -2.640e-6, -1.115e-4
0.315, -2.720e-6, -1.116e-4
0.320, -2.802e-6, -1.118e-4
0.325, -2.890e-6, -1.119e-4
0.330, -2.982e-6, -1.121e-4
0.335, -3.079e-6, -1.122e-4
0.340, -3.187e-6, -1.124e-4
0.345, -3.302e-6, -1.126e-4
0.350, -3.421e-6, -1.127e-4
0.355, -3.550e-6, -1.129e-4
0.360, -3.691e-6, -1.131e-4
0.365, -3.843e-6, -1.133e-4
0.370, -4.015e-6, -1.135e-4
0.375, -4.196e-6, -1.137e-4
0.380, -4.394e-6, -1.139e-4
0.385, -4.607e-6, -1.141e-4
0.390, -4.839e-6, -1.144e-4
0.395, -5.090e-6, -1.146e-4
0.400, -5.358e-6, -1.149e-4
0.405, -5.651e-6, -1.152e-4
0.410, -5.954e-6, -1.155e-4
0.415, -6.268e-6, -1.158e-4
0.420, -6.594e-6, -1.161e-4
0.425, -6.924e-6, -1.165e-4
0.430, -7.266e-6, -1.168e-4
0.435, -7.604e-6, -1.172e-4
0.440, -7.948e-6, -1.176e-4
0.445, -8.296e-6, -1.180e-4
0.450, -8.653e-6, -1.185e-4
0.455, -9.011e-6, -1.189e-4
0.460, -9.358e-6, -1.194e-4
0.465, -9.681e-6, -1.199e-4
0.470, -9.947e-6, -1.204e-4
0.475, -1.015e-5, -1.209e-4
0.480, -1.028e-5, -1.214e-4
0.485, -1.034e-5, -1.219e-4
0.490, -1.036e-5, -1.224e-4
0.495, -1.035e-5, -1.229e-4
0.500, -1.030e-5, -1.235e-4
0.505, -1.020e-5, -1.240e-4
0.510, -1.006e-5, -1.245e-4
0.515, -9.875e-6, -1.250e-4
0.520, -9.657e-6, -1.254e-4
0.525, -9.404e-6, -1.259e-4
0.530, -9.138e-6, -1.264e-4
0.535, -8.865e-6, -1.268e-4
0.540, -8.584e-6, -1.272e-4
0.545, -8.309e-6, -1.277e-4
0.550, -8.042e-6, -1.281e-4
0.555, -7.783e-6, -1.284e-4
0.560, -7.533e-6, -1.288e-4
0.565, -7.291e-6, -1.292e-4
0.570, -7.050e-6, -1.295e-4
0.575, -6.824e-6, -1.299e-4
0.580, -6.606e-6, -1.302e-4
0.585, -6.400e-6, -1.305e-4
0.590, -6.195e-6, -1.308e-4
0.595, -6.011e-6, -1.311e-4
0.600, -5.831e-6, -1.314e-4
0.605, -5.658e-6, -1.317e-4
0.610, -5.491e-6, -1.320e-4
0.615, -5.325e-6, -1.323e-4
0.620, -5.184e-6, -1.325e-4
0.625, -5.043e-6, -1.328e-4
0.630, -4.910e-6, -1.330e-4
0.635, -4.786e-6, -1.333e-4
0.640, -4.664e-6, -1.335e-4
0.645, -4.554e-6, -1.337e-4
0.650, -4.449e-6, -1.339e-4
0.655, -4.346e-6, -1.342e-4
0.660, -4.253e-6, -1.344e-4
0.665, -4.166e-6, -1.346e-4
0.670, -4.079e-6, -1.348e-4
0.675, -3.999e-6, -1.350e-4
0.680, -3.916e-6, -1.352e-4
0.685, -3.845e-6, -1.354e-4
0.690, -3.779e-6, -1.356e-4
0.695, -3.717e-6, -1.357e-4
0.700, -3.663e-6, -1.359e-4
0.705, -3.610e-6, -1.361e-4
0.710, -3.563e-6, -1.363e-4
0.715, -3.521e-6, -1.365e-4
0.720, -3.483e-6, -1.366e-4
0.725, -3.446e-6, -1.368e-4
0.730, -3.413e-6, -1.370e-4
0.735, -3.386e-6, -1.371e-4
0.740, -3.362e-6, -1.373e-4
0.745, -3.339e-6, -1.375e-4
0.750, -3.323e-6, -1.376e-4
0.755, -3.310e-6, -1.378e-4
0.760, -3.299e-6, -1.380e-4
0.765, -3.296e-6, -1.381e-4
0.770, -3.295e-6, -1.383e-4
0.775, -3.294e-6, -1.385e-4
0.780, -3.298e-6, -1.386e-4
0.785, -3.305e-6, -1.388e-4
0.790, -3.319e-6, -1.390e-4
0.795, -3.333e-6, -1.391e-4
0.800, -3.353e-6, -1.393e-4
0.805, -3.376e-6, -1.395e-4
0.810, -3.402e-6, -1.396e-4
0.815, -3.432e-6, -1.398e-4
0.820, -3.466e-6, -1.400e-4
0.825, -3.503e-6, -1.402e-4
0.830, -3.542e-6, -1.403e-4
0.835, -3.590e-6, -1.405e-4
0.840, -3.636e-6, -1.407e-4
0.845, -3.687e-6, -1.409e-4
0.850, -3.742e-6, -1.411e-4
0.855, -3.800e-6, -1.413e-4
0.860, -3.862e-6, -1.415e-4
0.865, -3.927e-6, -1.416e-4
0.870, -4.005e-6, -1.418e-4
0.875, -4.078e-6, -1.421e-4
0.880, -4.152e-6, -1.423e-4
0.885, -4.233e-6, -1.425e-4
0.890, -4.314e-6, -1.427e-4
0.895, -4.400e-6, -1.429e-4
0.900, -4.487e-6, -1.431e-4
0.905, -4.578e-6, -1.434e-4
0.910, -4.674e-6, -1.436e-4
0.915, -4.771e-6, -1.438e-4
0.920, -4.874e-6, -1.441e-4
0.925, -4.976e-6, -1.443e-4
0.930, -5.078e-6, -1.446e-4
0.935, -5.184e-6, -1.448e-4
0.940, -5.289e-6, -1.451e-4
0.945, -5.394e-6, -1.454e-4
0.950, -5.503e-6, -1.456e-4
0.955, -5.616e-6, -1.459e-4
0.960, -5.719e-6, -1.462e-4
0.965, -5.825e-6, -1.465e-4
0.970, -5.929e-6, -1.468e-4
0.975, -6.030e-6, -1.471e-4
0.980, -6.129e-6, -1.474e-4
0.985, -6.224e-6, -1.477e-4
0.990, -6.321e-6, -1.480e-4
0.995, -6.413e-6, -1.484e-4
1.000, -6.499e-6, -1.487e-4
1.005, -6.584e-6, -1.490e-4
1.010, -6.664e-6, -1.493e-4
1.015, -6.741e-6, -1.497e-4
1.020, -6.813e-6, -1.500e-4
1.025, -6.874e-6, -1.504e-4
1.030, -6.939e-6, -1.507e-4
1.035, -7.001e-6, -1.511e-4
1.040, -7.057e-6, -1.514e-4
1.045, -7.116e-6, -1.518e-4
1.050, -7.162e-6, -1.521e-4
1.055, -7.206e-6, -1.525e-4
1.060, -7.241e-6, -1.529e-4
1.065, -7.278e-6, -1.532e-4
1.070, -7.306e-6, -1.536e-4
1.075, -7.333e-6, -1.540e-4
1.080, -7.354e-6, -1.543e-4
1.085, -7.373e-6, -1.547e-4
1.090, -7.388e-6, -1.551e-4
1.095, -7.397e-6, -1.554e-4
1.100, -6.980e-6, -1.558e-4
