Nov. 1, 2023   13:51:06
Cyclic Voltammetry
File: c:\users\pku\desktop\zqk\o2-no.txt
Data Source:  Experiment
Instrument Model:  CHI600B
Header: 
Note: 

Init E (V) = 0.65
High E (V) = 1.1
Low E (V) = -0.29
Init P/N = N
Scan Rate (V/s) = 0.1
Segment = 6
Sample Interval (V) = 0.005
Quiet Time (sec) = 2
Sensitivity (A/V) = 5e-6

Segment 1:
Ep = 0.390V
ip = 1.227e-5A
Ah = 8.855e-6C

Ep = -0.090V
ip = 7.273e-7A
Ah = 3.235e-7C

Segment 2:
Segment 3:
Ep = 0.390V
ip = 1.051e-5A
Ah = 7.731e-6C

Ep = -0.095V
ip = 8.221e-7A
Ah = 3.991e-7C

Segment 4:
Segment 5:
Ep = 0.390V
ip = 1.047e-5A
Ah = 7.740e-6C

Ep = -0.090V
ip = 8.681e-7A
Ah = 3.904e-7C

Segment 6:
Potential/V, Current/A, Charge/C

Segment 1:
0.645, 2.774e-7, 1.387e-8
0.640, 3.292e-7, 3.033e-8
0.635, 3.729e-7, 4.897e-8
0.630, 4.090e-7, 6.942e-8
0.625, 4.472e-7, 9.178e-8
0.620, 4.841e-7, 1.160e-7
0.615, 5.209e-7, 1.420e-7
0.610, 5.611e-7, 1.701e-7
0.605, 6.048e-7, 2.003e-7
0.600, 6.499e-7, 2.328e-7
0.595, 6.989e-7, 2.678e-7
0.590, 7.589e-7, 3.057e-7
0.585, 8.165e-7, 3.465e-7
0.580, 8.768e-7, 3.904e-7
0.575, 9.409e-7, 4.374e-7
0.570, 1.010e-6, 4.879e-7
0.565, 1.090e-6, 5.425e-7
0.560, 1.171e-6, 6.010e-7
0.555, 1.262e-6, 6.641e-7
0.550, 1.359e-6, 7.321e-7
0.545, 1.468e-6, 8.055e-7
0.540, 1.586e-6, 8.848e-7
0.535, 1.715e-6, 9.705e-7
0.530, 1.855e-6, 1.063e-6
0.525, 2.011e-6, 1.164e-6
0.520, 2.186e-6, 1.273e-6
0.515, 2.386e-6, 1.392e-6
0.510, 2.598e-6, 1.522e-6
0.505, 2.836e-6, 1.664e-6
0.500, 3.110e-6, 1.820e-6
0.495, 3.412e-6, 1.990e-6
0.490, 3.752e-6, 2.178e-6
0.485, 4.144e-6, 2.385e-6
0.480, 4.578e-6, 2.614e-6
0.475, 5.070e-6, 2.867e-6
0.470, 5.622e-6, 3.148e-6
0.465, 6.231e-6, 3.460e-6
0.460, 6.902e-6, 3.805e-6
0.455, 7.619e-6, 4.186e-6
0.450, 8.375e-6, 4.605e-6
0.445, 9.160e-6, 5.063e-6
0.440, 9.949e-6, 5.560e-6
0.435, 1.073e-5, 6.097e-6
0.430, 1.147e-5, 6.670e-6
0.425, 1.217e-5, 7.279e-6
0.420, 1.280e-5, 7.919e-6
0.415, 1.334e-5, 8.586e-6
0.410, 1.378e-5, 9.274e-6
0.405, 1.411e-5, 9.980e-6
0.400, 1.434e-5, 1.070e-5
0.395, 1.447e-5, 1.142e-5
0.390, 1.450e-5, 1.215e-5
0.385, 1.445e-5, 1.287e-5
0.380, 1.434e-5, 1.359e-5
0.375, 1.416e-5, 1.429e-5
0.370, 1.394e-5, 1.499e-5
0.365, 1.369e-5, 1.568e-5
0.360, 1.342e-5, 1.635e-5
0.355, 1.312e-5, 1.700e-5
0.350, 1.282e-5, 1.764e-5
0.345, 1.253e-5, 1.827e-5
0.340, 1.222e-5, 1.888e-5
0.335, 1.194e-5, 1.948e-5
0.330, 1.166e-5, 2.006e-5
0.325, 1.139e-5, 2.063e-5
0.320, 1.114e-5, 2.119e-5
0.315, 1.090e-5, 2.173e-5
0.310, 1.067e-5, 2.226e-5
0.305, 1.045e-5, 2.279e-5
0.300, 1.025e-5, 2.330e-5
0.295, 1.005e-5, 2.380e-5
0.290, 9.860e-6, 2.430e-5
0.285, 9.683e-6, 2.478e-5
0.280, 9.517e-6, 2.526e-5
0.275, 9.359e-6, 2.572e-5
0.270, 9.202e-6, 2.618e-5
0.265, 9.059e-6, 2.664e-5
0.260, 8.923e-6, 2.708e-5
0.255, 8.794e-6, 2.752e-5
0.250, 8.670e-6, 2.796e-5
0.245, 8.548e-6, 2.838e-5
0.240, 8.429e-6, 2.880e-5
0.235, 8.321e-6, 2.922e-5
0.230, 8.217e-6, 2.963e-5
0.225, 8.118e-6, 3.004e-5
0.220, 8.023e-6, 3.044e-5
0.215, 7.931e-6, 3.083e-5
0.210, 7.843e-6, 3.123e-5
0.205, 7.755e-6, 3.161e-5
0.200, 7.675e-6, 3.200e-5
0.195, 7.598e-6, 3.238e-5
0.190, 7.524e-6, 3.275e-5
0.185, 7.452e-6, 3.313e-5
0.180, 7.383e-6, 3.350e-5
0.175, 7.315e-6, 3.386e-5
0.170, 7.253e-6, 3.422e-5
0.165, 7.191e-6, 3.458e-5
0.160, 7.134e-6, 3.494e-5
0.155, 7.078e-6, 3.530e-5
0.150, 7.023e-6, 3.565e-5
0.145, 6.962e-6, 3.599e-5
0.140, 6.909e-6, 3.634e-5
0.135, 6.861e-6, 3.668e-5
0.130, 6.817e-6, 3.702e-5
0.125, 6.771e-6, 3.736e-5
0.120, 6.728e-6, 3.770e-5
0.115, 6.685e-6, 3.803e-5
0.110, 6.646e-6, 3.837e-5
0.105, 6.607e-6, 3.870e-5
0.100, 6.570e-6, 3.902e-5
0.095, 6.532e-6, 3.935e-5
0.090, 6.497e-6, 3.968e-5
0.085, 6.463e-6, 4.000e-5
0.080, 6.431e-6, 4.032e-5
0.075, 6.399e-6, 4.064e-5
0.070, 6.372e-6, 4.096e-5
0.065, 6.342e-6, 4.128e-5
0.060, 6.318e-6, 4.159e-5
0.055, 6.292e-6, 4.191e-5
0.050, 6.270e-6, 4.222e-5
0.045, 6.248e-6, 4.253e-5
0.040, 6.229e-6, 4.284e-5
0.035, 6.209e-6, 4.315e-5
0.030, 6.197e-6, 4.346e-5
0.025, 6.179e-6, 4.377e-5
0.020, 6.164e-6, 4.408e-5
0.015, 6.155e-6, 4.439e-5
0.010, 6.150e-6, 4.470e-5
0.005, 6.146e-6, 4.500e-5
0.000, 6.144e-6, 4.531e-5
-0.005, 6.150e-6, 4.562e-5
-0.010, 6.160e-6, 4.593e-5
-0.015, 6.177e-6, 4.624e-5
-0.020, 6.204e-6, 4.655e-5
-0.025, 6.233e-6, 4.686e-5
-0.030, 6.277e-6, 4.717e-5
-0.035, 6.329e-6, 4.749e-5
-0.040, 6.394e-6, 4.781e-5
-0.045, 6.464e-6, 4.813e-5
-0.050, 6.558e-6, 4.846e-5
-0.055, 6.637e-6, 4.879e-5
-0.060, 6.722e-6, 4.913e-5
-0.065, 6.793e-6, 4.947e-5
-0.070, 6.852e-6, 4.981e-5
-0.075, 6.891e-6, 5.015e-5
-0.080, 6.920e-6, 5.050e-5
-0.085, 6.930e-6, 5.085e-5
-0.090, 6.930e-6, 5.119e-5
-0.095, 6.920e-6, 5.154e-5
-0.100, 6.919e-6, 5.188e-5
-0.105, 6.888e-6, 5.223e-5
-0.110, 6.873e-6, 5.257e-5
-0.115, 6.846e-6, 5.291e-5
-0.120, 6.826e-6, 5.326e-5
-0.125, 6.802e-6, 5.360e-5
-0.130, 6.787e-6, 5.394e-5
-0.135, 6.773e-6, 5.427e-5
-0.140, 6.769e-6, 5.461e-5
-0.145, 6.770e-6, 5.495e-5
-0.150, 6.786e-6, 5.529e-5
-0.155, 6.804e-6, 5.563e-5
-0.160, 6.831e-6, 5.597e-5
-0.165, 6.868e-6, 5.632e-5
-0.170, 6.913e-6, 5.666e-5
-0.175, 6.969e-6, 5.701e-5
-0.180, 7.040e-6, 5.736e-5
-0.185, 7.125e-6, 5.772e-5
-0.190, 7.213e-6, 5.808e-5
-0.195, 7.299e-6, 5.844e-5
-0.200, 7.396e-6, 5.881e-5
-0.205, 7.442e-6, 5.918e-5
-0.210, 7.548e-6, 5.956e-5
-0.215, 7.616e-6, 5.994e-5
-0.220, 7.692e-6, 6.033e-5
-0.225, 7.754e-6, 6.072e-5
-0.230, 7.814e-6, 6.111e-5
-0.235, 7.871e-6, 6.150e-5
-0.240, 7.917e-6, 6.190e-5
-0.245, 7.948e-6, 6.229e-5
-0.250, 7.973e-6, 6.269e-5
-0.255, 7.989e-6, 6.309e-5
-0.260, 7.978e-6, 6.349e-5
-0.265, 7.973e-6, 6.389e-5
-0.270, 7.960e-6, 6.429e-5
-0.275, 7.949e-6, 6.468e-5
-0.280, 7.943e-6, 6.508e-5
-0.285, 7.949e-6, 6.548e-5
-0.290, 5.838e-6, 6.577e-5

Segment 2:
-0.285, 4.492e-6, 6.600e-5
-0.280, 4.123e-6, 6.620e-5
-0.275, 3.867e-6, 6.639e-5
-0.270, 3.657e-6, 6.658e-5
-0.265, 3.492e-6, 6.675e-5
-0.260, 3.343e-6, 6.692e-5
-0.255, 3.205e-6, 6.708e-5
-0.250, 3.088e-6, 6.723e-5
-0.245, 2.982e-6, 6.738e-5
-0.240, 2.891e-6, 6.753e-5
-0.235, 2.822e-6, 6.767e-5
-0.230, 2.783e-6, 6.781e-5
-0.225, 2.753e-6, 6.795e-5
-0.220, 2.740e-6, 6.808e-5
-0.215, 2.740e-6, 6.822e-5
-0.210, 2.742e-6, 6.836e-5
-0.205, 2.768e-6, 6.849e-5
-0.200, 2.744e-6, 6.863e-5
-0.195, 2.754e-6, 6.877e-5
-0.190, 2.778e-6, 6.891e-5
-0.185, 2.807e-6, 6.905e-5
-0.180, 2.847e-6, 6.919e-5
-0.175, 2.877e-6, 6.934e-5
-0.170, 2.903e-6, 6.948e-5
-0.165, 2.913e-6, 6.963e-5
-0.160, 2.929e-6, 6.977e-5
-0.155, 2.913e-6, 6.992e-5
-0.150, 2.914e-6, 7.006e-5
-0.145, 2.894e-6, 7.021e-5
-0.140, 2.869e-6, 7.035e-5
-0.135, 2.842e-6, 7.049e-5
-0.130, 2.811e-6, 7.063e-5
-0.125, 2.781e-6, 7.077e-5
-0.120, 2.758e-6, 7.091e-5
-0.115, 2.739e-6, 7.105e-5
-0.110, 2.717e-6, 7.118e-5
-0.105, 2.685e-6, 7.132e-5
-0.100, 2.655e-6, 7.145e-5
-0.095, 2.610e-6, 7.158e-5
-0.090, 2.562e-6, 7.171e-5
-0.085, 2.499e-6, 7.184e-5
-0.080, 2.444e-6, 7.196e-5
-0.075, 2.391e-6, 7.208e-5
-0.070, 2.360e-6, 7.219e-5
-0.065, 2.363e-6, 7.231e-5
-0.060, 2.403e-6, 7.243e-5
-0.055, 2.481e-6, 7.256e-5
-0.050, 2.588e-6, 7.269e-5
-0.045, 2.721e-6, 7.282e-5
-0.040, 2.849e-6, 7.297e-5
-0.035, 2.971e-6, 7.311e-5
-0.030, 3.081e-6, 7.327e-5
-0.025, 3.174e-6, 7.343e-5
-0.020, 3.250e-6, 7.359e-5
-0.015, 3.311e-6, 7.375e-5
-0.010, 3.361e-6, 7.392e-5
-0.005, 3.402e-6, 7.409e-5
-0.000, 3.442e-6, 7.426e-5
0.005, 3.474e-6, 7.444e-5
0.010, 3.503e-6, 7.461e-5
0.015, 3.527e-6, 7.479e-5
0.020, 3.549e-6, 7.497e-5
0.025, 3.571e-6, 7.515e-5
0.030, 3.589e-6, 7.533e-5
0.035, 3.608e-6, 7.551e-5
0.040, 3.622e-6, 7.569e-5
0.045, 3.635e-6, 7.587e-5
0.050, 3.644e-6, 7.605e-5
0.055, 3.658e-6, 7.623e-5
0.060, 3.665e-6, 7.642e-5
0.065, 3.671e-6, 7.660e-5
0.070, 3.677e-6, 7.678e-5
0.075, 3.684e-6, 7.697e-5
0.080, 3.689e-6, 7.715e-5
0.085, 3.693e-6, 7.734e-5
0.090, 3.699e-6, 7.752e-5
0.095, 3.701e-6, 7.771e-5
0.100, 3.705e-6, 7.789e-5
0.105, 3.707e-6, 7.808e-5
0.110, 3.708e-6, 7.826e-5
0.115, 3.707e-6, 7.845e-5
0.120, 3.707e-6, 7.863e-5
0.125, 3.705e-6, 7.882e-5
0.130, 3.706e-6, 7.900e-5
0.135, 3.703e-6, 7.919e-5
0.140, 3.699e-6, 7.937e-5
0.145, 3.696e-6, 7.956e-5
0.150, 3.692e-6, 7.974e-5
0.155, 3.688e-6, 7.993e-5
0.160, 3.685e-6, 8.011e-5
0.165, 3.682e-6, 8.030e-5
0.170, 3.676e-6, 8.048e-5
0.175, 3.671e-6, 8.066e-5
0.180, 3.666e-6, 8.085e-5
0.185, 3.663e-6, 8.103e-5
0.190, 3.658e-6, 8.121e-5
0.195, 3.653e-6, 8.140e-5
0.200, 3.645e-6, 8.158e-5
0.205, 3.642e-6, 8.176e-5
0.210, 3.633e-6, 8.194e-5
0.215, 3.627e-6, 8.212e-5
0.220, 3.619e-6, 8.230e-5
0.225, 3.613e-6, 8.249e-5
0.230, 3.604e-6, 8.267e-5
0.235, 3.593e-6, 8.285e-5
0.240, 3.586e-6, 8.302e-5
0.245, 3.575e-6, 8.320e-5
0.250, 3.565e-6, 8.338e-5
0.255, 3.554e-6, 8.356e-5
0.260, 3.544e-6, 8.374e-5
0.265, 3.534e-6, 8.391e-5
0.270, 3.520e-6, 8.409e-5
0.275, 3.508e-6, 8.426e-5
0.280, 3.492e-6, 8.444e-5
0.285, 3.480e-6, 8.461e-5
0.290, 3.466e-6, 8.479e-5
0.295, 3.462e-6, 8.496e-5
0.300, 3.449e-6, 8.513e-5
0.305, 3.433e-6, 8.530e-5
0.310, 3.417e-6, 8.547e-5
0.315, 3.398e-6, 8.564e-5
0.320, 3.380e-6, 8.581e-5
0.325, 3.360e-6, 8.598e-5
0.330, 3.338e-6, 8.615e-5
0.335, 3.317e-6, 8.631e-5
0.340, 3.290e-6, 8.648e-5
0.345, 3.266e-6, 8.664e-5
0.350, 3.236e-6, 8.680e-5
0.355, 3.206e-6, 8.696e-5
0.360, 3.173e-6, 8.712e-5
0.365, 3.139e-6, 8.728e-5
0.370, 3.102e-6, 8.743e-5
0.375, 3.062e-6, 8.759e-5
0.380, 3.014e-6, 8.774e-5
0.385, 2.968e-6, 8.789e-5
0.390, 2.921e-6, 8.803e-5
0.395, 2.871e-6, 8.818e-5
0.400, 2.817e-6, 8.832e-5
0.405, 2.760e-6, 8.846e-5
0.410, 2.698e-6, 8.859e-5
0.415, 2.636e-6, 8.872e-5
0.420, 2.566e-6, 8.885e-5
0.425, 2.495e-6, 8.897e-5
0.430, 2.417e-6, 8.910e-5
0.435, 2.337e-6, 8.921e-5
0.440, 2.242e-6, 8.932e-5
0.445, 2.152e-6, 8.943e-5
0.450, 2.058e-6, 8.954e-5
0.455, 1.957e-6, 8.963e-5
0.460, 1.846e-6, 8.973e-5
0.465, 1.734e-6, 8.981e-5
0.470, 1.615e-6, 8.989e-5
0.475, 1.485e-6, 8.997e-5
0.480, 1.349e-6, 9.003e-5
0.485, 1.205e-6, 9.009e-5
0.490, 1.053e-6, 9.015e-5
0.495, 8.921e-7, 9.019e-5
0.500, 7.229e-7, 9.023e-5
0.505, 5.481e-7, 9.026e-5
0.510, 3.690e-7, 9.027e-5
0.515, 1.946e-7, 9.028e-5
0.520, 2.750e-8, 9.029e-5
0.525, -1.367e-7, 9.028e-5
0.530, -2.933e-7, 9.026e-5
0.535, -4.427e-7, 9.024e-5
0.540, -5.808e-7, 9.021e-5
0.545, -7.103e-7, 9.018e-5
0.550, -8.327e-7, 9.014e-5
0.555, -9.452e-7, 9.009e-5
0.560, -1.051e-6, 9.004e-5
0.565, -1.145e-6, 8.998e-5
0.570, -1.232e-6, 8.992e-5
0.575, -1.315e-6, 8.985e-5
0.580, -1.389e-6, 8.978e-5
0.585, -1.453e-6, 8.971e-5
0.590, -1.518e-6, 8.963e-5
0.595, -1.575e-6, 8.955e-5
0.600, -1.628e-6, 8.947e-5
0.605, -1.675e-6, 8.939e-5
0.610, -1.719e-6, 8.930e-5
0.615, -1.747e-6, 8.922e-5
0.620, -1.787e-6, 8.913e-5
0.625, -1.820e-6, 8.904e-5
0.630, -1.848e-6, 8.894e-5
0.635, -1.875e-6, 8.885e-5
0.640, -1.898e-6, 8.875e-5
0.645, -1.920e-6, 8.866e-5
0.650, -1.938e-6, 8.856e-5
0.655, -1.956e-6, 8.846e-5
0.660, -1.969e-6, 8.837e-5
0.665, -1.988e-6, 8.827e-5
0.670, -1.999e-6, 8.817e-5
0.675, -2.011e-6, 8.807e-5
0.680, -2.022e-6, 8.796e-5
0.685, -2.029e-6, 8.786e-5
0.690, -2.037e-6, 8.776e-5
0.695, -2.046e-6, 8.766e-5
0.700, -2.054e-6, 8.756e-5
0.705, -2.062e-6, 8.745e-5
0.710, -2.069e-6, 8.735e-5
0.715, -2.078e-6, 8.725e-5
0.720, -2.083e-6, 8.714e-5
0.725, -2.090e-6, 8.704e-5
0.730, -2.096e-6, 8.693e-5
0.735, -2.101e-6, 8.683e-5
0.740, -2.104e-6, 8.672e-5
0.745, -2.109e-6, 8.662e-5
0.750, -2.114e-6, 8.651e-5
0.755, -2.117e-6, 8.640e-5
0.760, -2.120e-6, 8.630e-5
0.765, -2.123e-6, 8.619e-5
0.770, -2.127e-6, 8.609e-5
0.775, -2.129e-6, 8.598e-5
0.780, -2.133e-6, 8.587e-5
0.785, -2.137e-6, 8.577e-5
0.790, -2.142e-6, 8.566e-5
0.795, -2.146e-6, 8.555e-5
0.800, -2.150e-6, 8.544e-5
0.805, -2.156e-6, 8.534e-5
0.810, -2.162e-6, 8.523e-5
0.815, -2.169e-6, 8.512e-5
0.820, -2.172e-6, 8.501e-5
0.825, -2.179e-6, 8.490e-5
0.830, -2.188e-6, 8.479e-5
0.835, -2.195e-6, 8.468e-5
0.840, -2.202e-6, 8.457e-5
0.845, -2.211e-6, 8.446e-5
0.850, -2.219e-6, 8.435e-5
0.855, -2.226e-6, 8.424e-5
0.860, -2.237e-6, 8.413e-5
0.865, -2.246e-6, 8.402e-5
0.870, -2.258e-6, 8.390e-5
0.875, -2.267e-6, 8.379e-5
0.880, -2.275e-6, 8.368e-5
0.885, -2.286e-6, 8.356e-5
0.890, -2.296e-6, 8.345e-5
0.895, -2.307e-6, 8.333e-5
0.900, -2.317e-6, 8.322e-5
0.905, -2.326e-6, 8.310e-5
0.910, -2.338e-6, 8.298e-5
0.915, -2.348e-6, 8.287e-5
0.920, -2.361e-6, 8.275e-5
0.925, -2.370e-6, 8.263e-5
0.930, -2.382e-6, 8.251e-5
0.935, -2.398e-6, 8.239e-5
0.940, -2.410e-6, 8.227e-5
0.945, -2.419e-6, 8.215e-5
0.950, -2.429e-6, 8.203e-5
0.955, -2.440e-6, 8.190e-5
0.960, -2.449e-6, 8.178e-5
0.965, -2.459e-6, 8.166e-5
0.970, -2.469e-6, 8.154e-5
0.975, -2.482e-6, 8.141e-5
0.980, -2.491e-6, 8.129e-5
0.985, -2.501e-6, 8.116e-5
0.990, -2.510e-6, 8.104e-5
0.995, -2.516e-6, 8.091e-5
1.000, -2.524e-6, 8.078e-5
1.005, -2.534e-6, 8.066e-5
1.010, -2.541e-6, 8.053e-5
1.015, -2.548e-6, 8.040e-5
1.020, -2.556e-6, 8.028e-5
1.025, -2.561e-6, 8.015e-5
1.030, -2.569e-6, 8.002e-5
1.035, -2.580e-6, 7.989e-5
1.040, -2.587e-6, 7.976e-5
1.045, -2.593e-6, 7.963e-5
1.050, -2.601e-6, 7.950e-5
1.055, -2.609e-6, 7.937e-5
1.060, -2.614e-6, 7.924e-5
1.065, -2.621e-6, 7.911e-5
1.070, -2.630e-6, 7.898e-5
1.075, -2.638e-6, 7.885e-5
1.080, -2.644e-6, 7.871e-5
1.085, -2.653e-6, 7.858e-5
1.090, -2.660e-6, 7.845e-5
1.095, -2.668e-6, 7.831e-5
1.100, -2.350e-6, 7.820e-5

Segment 3:
1.095, -1.937e-6, 7.810e-5
1.090, -1.670e-6, 7.802e-5
1.085, -1.460e-6, 7.794e-5
1.080, -1.294e-6, 7.788e-5
1.075, -1.154e-6, 7.782e-5
1.070, -1.037e-6, 7.777e-5
1.065, -9.362e-7, 7.772e-5
1.060, -8.456e-7, 7.768e-5
1.055, -7.624e-7, 7.764e-5
1.050, -6.938e-7, 7.761e-5
1.045, -6.314e-7, 7.758e-5
1.040, -5.746e-7, 7.755e-5
1.035, -5.246e-7, 7.752e-5
1.030, -4.771e-7, 7.750e-5
1.025, -4.372e-7, 7.748e-5
1.020, -3.952e-7, 7.746e-5
1.015, -3.599e-7, 7.744e-5
1.010, -3.250e-7, 7.742e-5
1.005, -2.937e-7, 7.741e-5
1.000, -2.647e-7, 7.739e-5
0.995, -2.366e-7, 7.738e-5
0.990, -2.093e-7, 7.737e-5
0.985, -1.857e-7, 7.736e-5
0.980, -1.650e-7, 7.735e-5
0.975, -1.410e-7, 7.735e-5
0.970, -1.189e-7, 7.734e-5
0.965, -1.003e-7, 7.734e-5
0.960, -8.083e-8, 7.733e-5
0.955, -6.546e-8, 7.733e-5
0.950, -4.748e-8, 7.733e-5
0.945, -2.961e-8, 7.732e-5
0.940, -1.454e-8, 7.732e-5
0.935, -4.182e-10, 7.732e-5
0.930, 1.531e-8, 7.732e-5
0.925, 2.779e-8, 7.733e-5
0.920, 4.103e-8, 7.733e-5
0.915, 5.474e-8, 7.733e-5
0.910, 6.864e-8, 7.733e-5
0.905, 8.088e-8, 7.734e-5
0.900, 9.442e-8, 7.734e-5
0.895, 1.036e-7, 7.735e-5
0.890, 1.168e-7, 7.735e-5
0.885, 1.274e-7, 7.736e-5
0.880, 1.402e-7, 7.737e-5
0.875, 1.495e-7, 7.737e-5
0.870, 1.611e-7, 7.738e-5
0.865, 1.721e-7, 7.739e-5
0.860, 1.821e-7, 7.740e-5
0.855, 1.932e-7, 7.741e-5
0.850, 2.018e-7, 7.742e-5
0.845, 2.137e-7, 7.743e-5
0.840, 2.223e-7, 7.744e-5
0.835, 2.338e-7, 7.745e-5
0.830, 2.434e-7, 7.747e-5
0.825, 2.536e-7, 7.748e-5
0.820, 2.637e-7, 7.749e-5
0.815, 2.746e-7, 7.751e-5
0.810, 2.873e-7, 7.752e-5
0.805, 2.955e-7, 7.753e-5
0.800, 3.064e-7, 7.755e-5
0.795, 3.182e-7, 7.757e-5
0.790, 3.283e-7, 7.758e-5
0.785, 3.407e-7, 7.760e-5
0.780, 3.494e-7, 7.762e-5
0.775, 3.636e-7, 7.763e-5
0.770, 3.765e-7, 7.765e-5
0.765, 3.876e-7, 7.767e-5
0.760, 3.981e-7, 7.769e-5
0.755, 4.124e-7, 7.771e-5
0.750, 4.232e-7, 7.773e-5
0.745, 4.375e-7, 7.776e-5
0.740, 4.486e-7, 7.778e-5
0.735, 4.647e-7, 7.780e-5
0.730, 4.794e-7, 7.783e-5
0.725, 4.924e-7, 7.785e-5
0.720, 5.093e-7, 7.788e-5
0.715, 5.255e-7, 7.790e-5
0.710, 5.390e-7, 7.793e-5
0.705, 5.569e-7, 7.796e-5
0.700, 5.750e-7, 7.799e-5
0.695, 5.913e-7, 7.802e-5
0.690, 6.098e-7, 7.805e-5
0.685, 6.290e-7, 7.808e-5
0.680, 6.486e-7, 7.811e-5
0.675, 6.707e-7, 7.814e-5
0.670, 6.914e-7, 7.818e-5
0.665, 7.183e-7, 7.821e-5
0.660, 7.474e-7, 7.825e-5
0.655, 7.729e-7, 7.829e-5
0.650, 7.981e-7, 7.833e-5
0.645, 8.272e-7, 7.837e-5
0.640, 8.523e-7, 7.841e-5
0.635, 8.837e-7, 7.846e-5
0.630, 9.149e-7, 7.850e-5
0.625, 9.473e-7, 7.855e-5
0.620, 9.810e-7, 7.860e-5
0.615, 1.013e-6, 7.865e-5
0.610, 1.055e-6, 7.870e-5
0.605, 1.096e-6, 7.876e-5
0.600, 1.138e-6, 7.882e-5
0.595, 1.185e-6, 7.887e-5
0.590, 1.233e-6, 7.894e-5
0.585, 1.286e-6, 7.900e-5
0.580, 1.341e-6, 7.907e-5
0.575, 1.400e-6, 7.914e-5
0.570, 1.463e-6, 7.921e-5
0.565, 1.535e-6, 7.929e-5
0.560, 1.607e-6, 7.937e-5
0.555, 1.686e-6, 7.945e-5
0.550, 1.771e-6, 7.954e-5
0.545, 1.863e-6, 7.963e-5
0.540, 1.962e-6, 7.973e-5
0.535, 2.069e-6, 7.984e-5
0.530, 2.189e-6, 7.994e-5
0.525, 2.326e-6, 8.006e-5
0.520, 2.472e-6, 8.018e-5
0.515, 2.632e-6, 8.032e-5
0.510, 2.810e-6, 8.046e-5
0.505, 3.012e-6, 8.061e-5
0.500, 3.239e-6, 8.077e-5
0.495, 3.492e-6, 8.094e-5
0.490, 3.777e-6, 8.113e-5
0.485, 4.105e-6, 8.134e-5
0.480, 4.467e-6, 8.156e-5
0.475, 4.879e-6, 8.181e-5
0.470, 5.336e-6, 8.207e-5
0.465, 5.850e-6, 8.236e-5
0.460, 6.413e-6, 8.269e-5
0.455, 7.014e-6, 8.304e-5
0.450, 7.648e-6, 8.342e-5
0.445, 8.302e-6, 8.383e-5
0.440, 8.970e-6, 8.428e-5
0.435, 9.630e-6, 8.476e-5
0.430, 1.026e-5, 8.528e-5
0.425, 1.085e-5, 8.582e-5
0.420, 1.137e-5, 8.639e-5
0.415, 1.183e-5, 8.698e-5
0.410, 1.220e-5, 8.759e-5
0.405, 1.249e-5, 8.821e-5
0.400, 1.269e-5, 8.885e-5
0.395, 1.279e-5, 8.949e-5
0.390, 1.282e-5, 9.013e-5
0.385, 1.277e-5, 9.077e-5
0.380, 1.266e-5, 9.140e-5
0.375, 1.250e-5, 9.203e-5
0.370, 1.229e-5, 9.264e-5
0.365, 1.207e-5, 9.324e-5
0.360, 1.183e-5, 9.384e-5
0.355, 1.157e-5, 9.441e-5
0.350, 1.131e-5, 9.498e-5
0.345, 1.105e-5, 9.553e-5
0.340, 1.080e-5, 9.607e-5
0.335, 1.055e-5, 9.660e-5
0.330, 1.031e-5, 9.711e-5
0.325, 1.008e-5, 9.762e-5
0.320, 9.855e-6, 9.811e-5
0.315, 9.647e-6, 9.859e-5
0.310, 9.451e-6, 9.907e-5
0.305, 9.258e-6, 9.953e-5
0.300, 9.080e-6, 9.998e-5
0.295, 8.912e-6, 1.004e-4
0.290, 8.753e-6, 1.009e-4
0.285, 8.603e-6, 1.013e-4
0.280, 8.452e-6, 1.017e-4
0.275, 8.317e-6, 1.021e-4
0.270, 8.188e-6, 1.025e-4
0.265, 8.067e-6, 1.029e-4
0.260, 7.952e-6, 1.033e-4
0.255, 7.842e-6, 1.037e-4
0.250, 7.736e-6, 1.041e-4
0.245, 7.635e-6, 1.045e-4
0.240, 7.539e-6, 1.049e-4
0.235, 7.447e-6, 1.053e-4
0.230, 7.358e-6, 1.056e-4
0.225, 7.275e-6, 1.060e-4
0.220, 7.194e-6, 1.063e-4
0.215, 7.117e-6, 1.067e-4
0.210, 7.042e-6, 1.071e-4
0.205, 6.962e-6, 1.074e-4
0.200, 6.892e-6, 1.077e-4
0.195, 6.828e-6, 1.081e-4
0.190, 6.764e-6, 1.084e-4
0.185, 6.704e-6, 1.088e-4
0.180, 6.646e-6, 1.091e-4
0.175, 6.591e-6, 1.094e-4
0.170, 6.536e-6, 1.098e-4
0.165, 6.486e-6, 1.101e-4
0.160, 6.436e-6, 1.104e-4
0.155, 6.391e-6, 1.107e-4
0.150, 6.344e-6, 1.110e-4
0.145, 6.303e-6, 1.113e-4
0.140, 6.260e-6, 1.117e-4
0.135, 6.220e-6, 1.120e-4
0.130, 6.179e-6, 1.123e-4
0.125, 6.139e-6, 1.126e-4
0.120, 6.101e-6, 1.129e-4
0.115, 6.068e-6, 1.132e-4
0.110, 6.033e-6, 1.135e-4
0.105, 6.003e-6, 1.138e-4
0.100, 5.971e-6, 1.141e-4
0.095, 5.941e-6, 1.144e-4
0.090, 5.911e-6, 1.147e-4
0.085, 5.885e-6, 1.150e-4
0.080, 5.857e-6, 1.153e-4
0.075, 5.834e-6, 1.156e-4
0.070, 5.808e-6, 1.159e-4
0.065, 5.787e-6, 1.161e-4
0.060, 5.765e-6, 1.164e-4
0.055, 5.746e-6, 1.167e-4
0.050, 5.729e-6, 1.170e-4
0.045, 5.713e-6, 1.173e-4
0.040, 5.696e-6, 1.176e-4
0.035, 5.686e-6, 1.179e-4
0.030, 5.672e-6, 1.181e-4
0.025, 5.666e-6, 1.184e-4
0.020, 5.659e-6, 1.187e-4
0.015, 5.655e-6, 1.190e-4
0.010, 5.651e-6, 1.193e-4
0.005, 5.655e-6, 1.196e-4
0.000, 5.656e-6, 1.198e-4
-0.005, 5.667e-6, 1.201e-4
-0.010, 5.678e-6, 1.204e-4
-0.015, 5.699e-6, 1.207e-4
-0.020, 5.723e-6, 1.210e-4
-0.025, 5.758e-6, 1.213e-4
-0.030, 5.804e-6, 1.216e-4
-0.035, 5.864e-6, 1.219e-4
-0.040, 5.929e-6, 1.222e-4
-0.045, 6.010e-6, 1.225e-4
-0.050, 6.102e-6, 1.228e-4
-0.055, 6.193e-6, 1.231e-4
-0.060, 6.275e-6, 1.234e-4
-0.065, 6.353e-6, 1.237e-4
-0.070, 6.414e-6, 1.240e-4
-0.075, 6.473e-6, 1.243e-4
-0.080, 6.511e-6, 1.247e-4
-0.085, 6.536e-6, 1.250e-4
-0.090, 6.534e-6, 1.253e-4
-0.095, 6.538e-6, 1.256e-4
-0.100, 6.535e-6, 1.260e-4
-0.105, 6.524e-6, 1.263e-4
-0.110, 6.501e-6, 1.266e-4
-0.115, 6.489e-6, 1.270e-4
-0.120, 6.464e-6, 1.273e-4
-0.125, 6.448e-6, 1.276e-4
-0.130, 6.438e-6, 1.279e-4
-0.135, 6.429e-6, 1.282e-4
-0.140, 6.427e-6, 1.286e-4
-0.145, 6.436e-6, 1.289e-4
-0.150, 6.451e-6, 1.292e-4
-0.155, 6.478e-6, 1.295e-4
-0.160, 6.500e-6, 1.299e-4
-0.165, 6.546e-6, 1.302e-4
-0.170, 6.592e-6, 1.305e-4
-0.175, 6.656e-6, 1.308e-4
-0.180, 6.725e-6, 1.312e-4
-0.185, 6.812e-6, 1.315e-4
-0.190, 6.906e-6, 1.319e-4
-0.195, 7.008e-6, 1.322e-4
-0.200, 7.100e-6, 1.326e-4
-0.205, 7.157e-6, 1.329e-4
-0.210, 7.257e-6, 1.333e-4
-0.215, 7.336e-6, 1.337e-4
-0.220, 7.405e-6, 1.340e-4
-0.225, 7.474e-6, 1.344e-4
-0.230, 7.542e-6, 1.348e-4
-0.235, 7.600e-6, 1.352e-4
-0.240, 7.640e-6, 1.355e-4
-0.245, 7.680e-6, 1.359e-4
-0.250, 7.696e-6, 1.363e-4
-0.255, 7.722e-6, 1.367e-4
-0.260, 7.707e-6, 1.371e-4
-0.265, 7.700e-6, 1.375e-4
-0.270, 7.695e-6, 1.379e-4
-0.275, 7.685e-6, 1.382e-4
-0.280, 7.673e-6, 1.386e-4
-0.285, 7.689e-6, 1.390e-4
-0.290, 5.577e-6, 1.393e-4

Segment 4:
-0.285, 4.238e-6, 1.395e-4
-0.280, 3.864e-6, 1.397e-4
-0.275, 3.612e-6, 1.399e-4
-0.270, 3.405e-6, 1.400e-4
-0.265, 3.244e-6, 1.402e-4
-0.260, 3.091e-6, 1.404e-4
-0.255, 2.951e-6, 1.405e-4
-0.250, 2.837e-6, 1.406e-4
-0.245, 2.732e-6, 1.408e-4
-0.240, 2.646e-6, 1.409e-4
-0.235, 2.578e-6, 1.410e-4
-0.230, 2.539e-6, 1.412e-4
-0.225, 2.511e-6, 1.413e-4
-0.220, 2.503e-6, 1.414e-4
-0.215, 2.500e-6, 1.415e-4
-0.210, 2.505e-6, 1.417e-4
-0.205, 2.528e-6, 1.418e-4
-0.200, 2.510e-6, 1.419e-4
-0.195, 2.520e-6, 1.420e-4
-0.190, 2.545e-6, 1.422e-4
-0.185, 2.581e-6, 1.423e-4
-0.180, 2.619e-6, 1.424e-4
-0.175, 2.654e-6, 1.426e-4
-0.170, 2.677e-6, 1.427e-4
-0.165, 2.700e-6, 1.428e-4
-0.160, 2.707e-6, 1.430e-4
-0.155, 2.697e-6, 1.431e-4
-0.150, 2.699e-6, 1.432e-4
-0.145, 2.676e-6, 1.434e-4
-0.140, 2.657e-6, 1.435e-4
-0.135, 2.626e-6, 1.436e-4
-0.130, 2.601e-6, 1.438e-4
-0.125, 2.568e-6, 1.439e-4
-0.120, 2.548e-6, 1.440e-4
-0.115, 2.530e-6, 1.442e-4
-0.110, 2.509e-6, 1.443e-4
-0.105, 2.481e-6, 1.444e-4
-0.100, 2.451e-6, 1.445e-4
-0.095, 2.415e-6, 1.446e-4
-0.090, 2.356e-6, 1.448e-4
-0.085, 2.294e-6, 1.449e-4
-0.080, 2.228e-6, 1.450e-4
-0.075, 2.178e-6, 1.451e-4
-0.070, 2.156e-6, 1.452e-4
-0.065, 2.157e-6, 1.453e-4
-0.060, 2.202e-6, 1.454e-4
-0.055, 2.280e-6, 1.455e-4
-0.050, 2.396e-6, 1.457e-4
-0.045, 2.529e-6, 1.458e-4
-0.040, 2.661e-6, 1.459e-4
-0.035, 2.786e-6, 1.461e-4
-0.030, 2.891e-6, 1.462e-4
-0.025, 2.981e-6, 1.464e-4
-0.020, 3.062e-6, 1.465e-4
-0.015, 3.127e-6, 1.467e-4
-0.010, 3.178e-6, 1.468e-4
-0.005, 3.221e-6, 1.470e-4
-0.000, 3.259e-6, 1.471e-4
0.005, 3.289e-6, 1.473e-4
0.010, 3.318e-6, 1.475e-4
0.015, 3.344e-6, 1.476e-4
0.020, 3.369e-6, 1.478e-4
0.025, 3.389e-6, 1.480e-4
0.030, 3.410e-6, 1.481e-4
0.035, 3.426e-6, 1.483e-4
0.040, 3.443e-6, 1.485e-4
0.045, 3.457e-6, 1.487e-4
0.050, 3.469e-6, 1.488e-4
0.055, 3.481e-6, 1.490e-4
0.060, 3.492e-6, 1.492e-4
0.065, 3.502e-6, 1.494e-4
0.070, 3.510e-6, 1.495e-4
0.075, 3.516e-6, 1.497e-4
0.080, 3.522e-6, 1.499e-4
0.085, 3.526e-6, 1.501e-4
0.090, 3.533e-6, 1.502e-4
0.095, 3.537e-6, 1.504e-4
0.100, 3.540e-6, 1.506e-4
0.105, 3.543e-6, 1.508e-4
0.110, 3.547e-6, 1.510e-4
0.115, 3.549e-6, 1.511e-4
0.120, 3.553e-6, 1.513e-4
0.125, 3.553e-6, 1.515e-4
0.130, 3.555e-6, 1.517e-4
0.135, 3.555e-6, 1.518e-4
0.140, 3.556e-6, 1.520e-4
0.145, 3.554e-6, 1.522e-4
0.150, 3.555e-6, 1.524e-4
0.155, 3.552e-6, 1.526e-4
0.160, 3.551e-6, 1.527e-4
0.165, 3.547e-6, 1.529e-4
0.170, 3.546e-6, 1.531e-4
0.175, 3.543e-6, 1.533e-4
0.180, 3.541e-6, 1.534e-4
0.185, 3.539e-6, 1.536e-4
0.190, 3.536e-6, 1.538e-4
0.195, 3.530e-6, 1.540e-4
0.200, 3.526e-6, 1.541e-4
0.205, 3.523e-6, 1.543e-4
0.210, 3.518e-6, 1.545e-4
0.215, 3.514e-6, 1.547e-4
0.220, 3.507e-6, 1.548e-4
0.225, 3.499e-6, 1.550e-4
0.230, 3.493e-6, 1.552e-4
0.235, 3.486e-6, 1.554e-4
0.240, 3.477e-6, 1.555e-4
0.245, 3.468e-6, 1.557e-4
0.250, 3.462e-6, 1.559e-4
0.255, 3.449e-6, 1.561e-4
0.260, 3.441e-6, 1.562e-4
0.265, 3.430e-6, 1.564e-4
0.270, 3.420e-6, 1.566e-4
0.275, 3.408e-6, 1.567e-4
0.280, 3.395e-6, 1.569e-4
0.285, 3.381e-6, 1.571e-4
0.290, 3.368e-6, 1.573e-4
0.295, 3.352e-6, 1.574e-4
0.300, 3.339e-6, 1.576e-4
0.305, 3.320e-6, 1.578e-4
0.310, 3.303e-6, 1.579e-4
0.315, 3.284e-6, 1.581e-4
0.320, 3.266e-6, 1.582e-4
0.325, 3.244e-6, 1.584e-4
0.330, 3.223e-6, 1.586e-4
0.335, 3.198e-6, 1.587e-4
0.340, 3.176e-6, 1.589e-4
0.345, 3.148e-6, 1.590e-4
0.350, 3.121e-6, 1.592e-4
0.355, 3.090e-6, 1.594e-4
0.360, 3.056e-6, 1.595e-4
0.365, 3.017e-6, 1.597e-4
0.370, 2.981e-6, 1.598e-4
0.375, 2.943e-6, 1.600e-4
0.380, 2.901e-6, 1.601e-4
0.385, 2.858e-6, 1.602e-4
0.390, 2.812e-6, 1.604e-4
0.395, 2.761e-6, 1.605e-4
0.400, 2.711e-6, 1.607e-4
0.405, 2.653e-6, 1.608e-4
0.410, 2.594e-6, 1.609e-4
0.415, 2.531e-6, 1.611e-4
0.420, 2.467e-6, 1.612e-4
0.425, 2.394e-6, 1.613e-4
0.430, 2.320e-6, 1.614e-4
0.435, 2.233e-6, 1.615e-4
0.440, 2.150e-6, 1.616e-4
0.445, 2.062e-6, 1.617e-4
0.450, 1.969e-6, 1.618e-4
0.455, 1.870e-6, 1.619e-4
0.460, 1.763e-6, 1.620e-4
0.465, 1.653e-6, 1.621e-4
0.470, 1.536e-6, 1.622e-4
0.475, 1.408e-6, 1.622e-4
0.480, 1.275e-6, 1.623e-4
0.485, 1.133e-6, 1.624e-4
0.490, 9.838e-7, 1.624e-4
0.495, 8.250e-7, 1.625e-4
0.500, 6.536e-7, 1.625e-4
0.505, 4.825e-7, 1.625e-4
0.510, 3.085e-7, 1.625e-4
0.515, 1.383e-7, 1.625e-4
0.520, -2.846e-8, 1.625e-4
0.525, -1.898e-7, 1.625e-4
0.530, -3.449e-7, 1.625e-4
0.535, -4.899e-7, 1.625e-4
0.540, -6.289e-7, 1.624e-4
0.545, -7.542e-7, 1.624e-4
0.550, -8.791e-7, 1.624e-4
0.555, -9.887e-7, 1.623e-4
0.560, -1.089e-6, 1.623e-4
0.565, -1.181e-6, 1.622e-4
0.570, -1.265e-6, 1.621e-4
0.575, -1.345e-6, 1.621e-4
0.580, -1.416e-6, 1.620e-4
0.585, -1.483e-6, 1.619e-4
0.590, -1.544e-6, 1.618e-4
0.595, -1.596e-6, 1.618e-4
0.600, -1.651e-6, 1.617e-4
0.605, -1.696e-6, 1.616e-4
0.610, -1.740e-6, 1.615e-4
0.615, -1.766e-6, 1.614e-4
0.620, -1.806e-6, 1.613e-4
0.625, -1.836e-6, 1.612e-4
0.630, -1.865e-6, 1.612e-4
0.635, -1.889e-6, 1.611e-4
0.640, -1.912e-6, 1.610e-4
0.645, -1.932e-6, 1.609e-4
0.650, -1.951e-6, 1.608e-4
0.655, -1.967e-6, 1.607e-4
0.660, -1.982e-6, 1.606e-4
0.665, -2.001e-6, 1.605e-4
0.670, -2.011e-6, 1.604e-4
0.675, -2.023e-6, 1.603e-4
0.680, -2.032e-6, 1.602e-4
0.685, -2.042e-6, 1.601e-4
0.690, -2.048e-6, 1.600e-4
0.695, -2.057e-6, 1.599e-4
0.700, -2.064e-6, 1.598e-4
0.705, -2.072e-6, 1.597e-4
0.710, -2.078e-6, 1.595e-4
0.715, -2.089e-6, 1.594e-4
0.720, -2.095e-6, 1.593e-4
0.725, -2.101e-6, 1.592e-4
0.730, -2.105e-6, 1.591e-4
0.735, -2.110e-6, 1.590e-4
0.740, -2.116e-6, 1.589e-4
0.745, -2.118e-6, 1.588e-4
0.750, -2.121e-6, 1.587e-4
0.755, -2.123e-6, 1.586e-4
0.760, -2.126e-6, 1.585e-4
0.765, -2.130e-6, 1.584e-4
0.770, -2.133e-6, 1.583e-4
0.775, -2.138e-6, 1.582e-4
0.780, -2.141e-6, 1.581e-4
0.785, -2.145e-6, 1.580e-4
0.790, -2.149e-6, 1.579e-4
0.795, -2.152e-6, 1.577e-4
0.800, -2.158e-6, 1.576e-4
0.805, -2.163e-6, 1.575e-4
0.810, -2.169e-6, 1.574e-4
0.815, -2.174e-6, 1.573e-4
0.820, -2.178e-6, 1.572e-4
0.825, -2.186e-6, 1.571e-4
0.830, -2.194e-6, 1.570e-4
0.835, -2.200e-6, 1.569e-4
0.840, -2.207e-6, 1.568e-4
0.845, -2.216e-6, 1.567e-4
0.850, -2.223e-6, 1.565e-4
0.855, -2.231e-6, 1.564e-4
0.860, -2.241e-6, 1.563e-4
0.865, -2.249e-6, 1.562e-4
0.870, -2.261e-6, 1.561e-4
0.875, -2.269e-6, 1.560e-4
0.880, -2.278e-6, 1.559e-4
0.885, -2.290e-6, 1.558e-4
0.890, -2.298e-6, 1.556e-4
0.895, -2.309e-6, 1.555e-4
0.900, -2.318e-6, 1.554e-4
0.905, -2.328e-6, 1.553e-4
0.910, -2.340e-6, 1.552e-4
0.915, -2.349e-6, 1.551e-4
0.920, -2.362e-6, 1.549e-4
0.925, -2.371e-6, 1.548e-4
0.930, -2.383e-6, 1.547e-4
0.935, -2.398e-6, 1.546e-4
0.940, -2.411e-6, 1.545e-4
0.945, -2.419e-6, 1.543e-4
0.950, -2.430e-6, 1.542e-4
0.955, -2.440e-6, 1.541e-4
0.960, -2.448e-6, 1.540e-4
0.965, -2.457e-6, 1.538e-4
0.970, -2.468e-6, 1.537e-4
0.975, -2.480e-6, 1.536e-4
0.980, -2.489e-6, 1.535e-4
0.985, -2.498e-6, 1.534e-4
0.990, -2.508e-6, 1.532e-4
0.995, -2.515e-6, 1.531e-4
1.000, -2.522e-6, 1.530e-4
1.005, -2.531e-6, 1.528e-4
1.010, -2.540e-6, 1.527e-4
1.015, -2.546e-6, 1.526e-4
1.020, -2.554e-6, 1.525e-4
1.025, -2.555e-6, 1.523e-4
1.030, -2.565e-6, 1.522e-4
1.035, -2.575e-6, 1.521e-4
1.040, -2.583e-6, 1.520e-4
1.045, -2.590e-6, 1.518e-4
1.050, -2.596e-6, 1.517e-4
1.055, -2.604e-6, 1.516e-4
1.060, -2.611e-6, 1.514e-4
1.065, -2.615e-6, 1.513e-4
1.070, -2.624e-6, 1.512e-4
1.075, -2.635e-6, 1.510e-4
1.080, -2.640e-6, 1.509e-4
1.085, -2.647e-6, 1.508e-4
1.090, -2.655e-6, 1.506e-4
1.095, -2.662e-6, 1.505e-4
1.100, -2.345e-6, 1.504e-4

Segment 5:
1.095, -1.932e-6, 1.503e-4
1.090, -1.664e-6, 1.502e-4
1.085, -1.459e-6, 1.501e-4
1.080, -1.292e-6, 1.501e-4
1.075, -1.151e-6, 1.500e-4
1.070, -1.035e-6, 1.500e-4
1.065, -9.353e-7, 1.499e-4
1.060, -8.446e-7, 1.499e-4
1.055, -7.630e-7, 1.498e-4
1.050, -6.925e-7, 1.498e-4
1.045, -6.309e-7, 1.498e-4
1.040, -5.759e-7, 1.497e-4
1.035, -5.246e-7, 1.497e-4
1.030, -4.778e-7, 1.497e-4
1.025, -4.377e-7, 1.497e-4
1.020, -3.955e-7, 1.496e-4
1.015, -3.597e-7, 1.496e-4
1.010, -3.248e-7, 1.496e-4
1.005, -2.931e-7, 1.496e-4
1.000, -2.645e-7, 1.496e-4
0.995, -2.370e-7, 1.496e-4
0.990, -2.093e-7, 1.496e-4
0.985, -1.860e-7, 1.496e-4
0.980, -1.645e-7, 1.495e-4
0.975, -1.411e-7, 1.495e-4
0.970, -1.187e-7, 1.495e-4
0.965, -9.958e-8, 1.495e-4
0.960, -8.066e-8, 1.495e-4
0.955, -6.518e-8, 1.495e-4
0.950, -4.757e-8, 1.495e-4
0.945, -2.848e-8, 1.495e-4
0.940, -1.440e-8, 1.495e-4
0.935, 3.942e-10, 1.495e-4
0.930, 1.532e-8, 1.495e-4
0.925, 2.773e-8, 1.495e-4
0.920, 4.148e-8, 1.495e-4
0.915, 5.393e-8, 1.495e-4
0.910, 6.949e-8, 1.495e-4
0.905, 8.051e-8, 1.495e-4
0.900, 9.394e-8, 1.495e-4
0.895, 1.033e-7, 1.495e-4
0.890, 1.175e-7, 1.495e-4
0.885, 1.274e-7, 1.496e-4
0.880, 1.410e-7, 1.496e-4
0.875, 1.492e-7, 1.496e-4
0.870, 1.621e-7, 1.496e-4
0.865, 1.714e-7, 1.496e-4
0.860, 1.830e-7, 1.496e-4
0.855, 1.937e-7, 1.496e-4
0.850, 2.026e-7, 1.496e-4
0.845, 2.138e-7, 1.496e-4
0.840, 2.232e-7, 1.496e-4
0.835, 2.341e-7, 1.496e-4
0.830, 2.451e-7, 1.497e-4
0.825, 2.537e-7, 1.497e-4
0.820, 2.653e-7, 1.497e-4
0.815, 2.753e-7, 1.497e-4
0.810, 2.867e-7, 1.497e-4
0.805, 2.957e-7, 1.497e-4
0.800, 3.084e-7, 1.497e-4
0.795, 3.178e-7, 1.498e-4
0.790, 3.301e-7, 1.498e-4
0.785, 3.411e-7, 1.498e-4
0.780, 3.519e-7, 1.498e-4
0.775, 3.637e-7, 1.498e-4
0.770, 3.773e-7, 1.498e-4
0.765, 3.887e-7, 1.499e-4
0.760, 3.995e-7, 1.499e-4
0.755, 4.131e-7, 1.499e-4
0.750, 4.251e-7, 1.499e-4
0.745, 4.377e-7, 1.500e-4
0.740, 4.508e-7, 1.500e-4
0.735, 4.649e-7, 1.500e-4
0.730, 4.796e-7, 1.500e-4
0.725, 4.929e-7, 1.500e-4
0.720, 5.115e-7, 1.501e-4
0.715, 5.265e-7, 1.501e-4
0.710, 5.406e-7, 1.501e-4
0.705, 5.577e-7, 1.502e-4
0.700, 5.758e-7, 1.502e-4
0.695, 5.921e-7, 1.502e-4
0.690, 6.119e-7, 1.502e-4
0.685, 6.304e-7, 1.503e-4
0.680, 6.513e-7, 1.503e-4
0.675, 6.726e-7, 1.503e-4
0.670, 6.945e-7, 1.504e-4
0.665, 7.199e-7, 1.504e-4
0.660, 7.504e-7, 1.504e-4
0.655, 7.749e-7, 1.505e-4
0.650, 8.020e-7, 1.505e-4
0.645, 8.285e-7, 1.506e-4
0.640, 8.570e-7, 1.506e-4
0.635, 8.853e-7, 1.507e-4
0.630, 9.180e-7, 1.507e-4
0.625, 9.491e-7, 1.507e-4
0.620, 9.853e-7, 1.508e-4
0.615, 1.016e-6, 1.508e-4
0.610, 1.058e-6, 1.509e-4
0.605, 1.099e-6, 1.510e-4
0.600, 1.143e-6, 1.510e-4
0.595, 1.188e-6, 1.511e-4
0.590, 1.239e-6, 1.511e-4
0.585, 1.290e-6, 1.512e-4
0.580, 1.346e-6, 1.513e-4
0.575, 1.404e-6, 1.513e-4
0.570, 1.469e-6, 1.514e-4
0.565, 1.541e-6, 1.515e-4
0.560, 1.614e-6, 1.516e-4
0.555, 1.692e-6, 1.517e-4
0.550, 1.776e-6, 1.517e-4
0.545, 1.868e-6, 1.518e-4
0.540, 1.968e-6, 1.519e-4
0.535, 2.077e-6, 1.520e-4
0.530, 2.196e-6, 1.521e-4
0.525, 2.335e-6, 1.523e-4
0.520, 2.480e-6, 1.524e-4
0.515, 2.640e-6, 1.525e-4
0.510, 2.822e-6, 1.527e-4
0.505, 3.022e-6, 1.528e-4
0.500, 3.251e-6, 1.530e-4
0.495, 3.501e-6, 1.531e-4
0.490, 3.790e-6, 1.533e-4
0.485, 4.118e-6, 1.535e-4
0.480, 4.483e-6, 1.538e-4
0.475, 4.893e-6, 1.540e-4
0.470, 5.355e-6, 1.543e-4
0.465, 5.867e-6, 1.546e-4
0.460, 6.433e-6, 1.549e-4
0.455, 7.033e-6, 1.552e-4
0.450, 7.669e-6, 1.556e-4
0.445, 8.324e-6, 1.560e-4
0.440, 8.992e-6, 1.565e-4
0.435, 9.648e-6, 1.570e-4
0.430, 1.028e-5, 1.575e-4
0.425, 1.086e-5, 1.580e-4
0.420, 1.138e-5, 1.586e-4
0.415, 1.183e-5, 1.592e-4
0.410, 1.219e-5, 1.598e-4
0.405, 1.248e-5, 1.604e-4
0.400, 1.266e-5, 1.611e-4
0.395, 1.276e-5, 1.617e-4
0.390, 1.278e-5, 1.623e-4
0.385, 1.272e-5, 1.630e-4
0.380, 1.261e-5, 1.636e-4
0.375, 1.244e-5, 1.642e-4
0.370, 1.223e-5, 1.648e-4
0.365, 1.200e-5, 1.654e-4
0.360, 1.176e-5, 1.660e-4
0.355, 1.150e-5, 1.666e-4
0.350, 1.124e-5, 1.672e-4
0.345, 1.099e-5, 1.677e-4
0.340, 1.073e-5, 1.683e-4
0.335, 1.048e-5, 1.688e-4
0.330, 1.025e-5, 1.693e-4
0.325, 1.001e-5, 1.698e-4
0.320, 9.796e-6, 1.703e-4
0.315, 9.590e-6, 1.708e-4
0.310, 9.395e-6, 1.712e-4
0.305, 9.204e-6, 1.717e-4
0.300, 9.028e-6, 1.721e-4
0.295, 8.862e-6, 1.726e-4
0.290, 8.705e-6, 1.730e-4
0.285, 8.553e-6, 1.734e-4
0.280, 8.407e-6, 1.739e-4
0.275, 8.274e-6, 1.743e-4
0.270, 8.147e-6, 1.747e-4
0.265, 8.026e-6, 1.751e-4
0.260, 7.913e-6, 1.755e-4
0.255, 7.804e-6, 1.759e-4
0.250, 7.699e-6, 1.763e-4
0.245, 7.600e-6, 1.766e-4
0.240, 7.505e-6, 1.770e-4
0.235, 7.414e-6, 1.774e-4
0.230, 7.325e-6, 1.778e-4
0.225, 7.243e-6, 1.781e-4
0.220, 7.162e-6, 1.785e-4
0.215, 7.087e-6, 1.788e-4
0.210, 7.012e-6, 1.792e-4
0.205, 6.932e-6, 1.795e-4
0.200, 6.863e-6, 1.799e-4
0.195, 6.800e-6, 1.802e-4
0.190, 6.737e-6, 1.805e-4
0.185, 6.679e-6, 1.809e-4
0.180, 6.620e-6, 1.812e-4
0.175, 6.567e-6, 1.815e-4
0.170, 6.511e-6, 1.819e-4
0.165, 6.463e-6, 1.822e-4
0.160, 6.413e-6, 1.825e-4
0.155, 6.370e-6, 1.828e-4
0.150, 6.322e-6, 1.831e-4
0.145, 6.281e-6, 1.835e-4
0.140, 6.240e-6, 1.838e-4
0.135, 6.201e-6, 1.841e-4
0.130, 6.156e-6, 1.844e-4
0.125, 6.118e-6, 1.847e-4
0.120, 6.083e-6, 1.850e-4
0.115, 6.050e-6, 1.853e-4
0.110, 6.015e-6, 1.856e-4
0.105, 5.985e-6, 1.859e-4
0.100, 5.953e-6, 1.862e-4
0.095, 5.923e-6, 1.865e-4
0.090, 5.895e-6, 1.868e-4
0.085, 5.868e-6, 1.871e-4
0.080, 5.841e-6, 1.874e-4
0.075, 5.817e-6, 1.877e-4
0.070, 5.792e-6, 1.880e-4
0.065, 5.771e-6, 1.882e-4
0.060, 5.749e-6, 1.885e-4
0.055, 5.731e-6, 1.888e-4
0.050, 5.713e-6, 1.891e-4
0.045, 5.697e-6, 1.894e-4
0.040, 5.683e-6, 1.897e-4
0.035, 5.670e-6, 1.900e-4
0.030, 5.660e-6, 1.902e-4
0.025, 5.651e-6, 1.905e-4
0.020, 5.644e-6, 1.908e-4
0.015, 5.640e-6, 1.911e-4
0.010, 5.639e-6, 1.914e-4
0.005, 5.640e-6, 1.916e-4
0.000, 5.642e-6, 1.919e-4
-0.005, 5.653e-6, 1.922e-4
-0.010, 5.666e-6, 1.925e-4
-0.015, 5.687e-6, 1.928e-4
-0.020, 5.711e-6, 1.931e-4
-0.025, 5.747e-6, 1.934e-4
-0.030, 5.793e-6, 1.936e-4
-0.035, 5.852e-6, 1.939e-4
-0.040, 5.922e-6, 1.942e-4
-0.045, 6.001e-6, 1.945e-4
-0.050, 6.094e-6, 1.948e-4
-0.055, 6.186e-6, 1.951e-4
-0.060, 6.277e-6, 1.955e-4
-0.065, 6.351e-6, 1.958e-4
-0.070, 6.414e-6, 1.961e-4
-0.075, 6.457e-6, 1.964e-4
-0.080, 6.484e-6, 1.967e-4
-0.085, 6.501e-6, 1.971e-4
-0.090, 6.507e-6, 1.974e-4
-0.095, 6.501e-6, 1.977e-4
-0.100, 6.500e-6, 1.980e-4
-0.105, 6.475e-6, 1.984e-4
-0.110, 6.460e-6, 1.987e-4
-0.115, 6.433e-6, 1.990e-4
-0.120, 6.415e-6, 1.993e-4
-0.125, 6.388e-6, 1.997e-4
-0.130, 6.380e-6, 2.000e-4
-0.135, 6.370e-6, 2.003e-4
-0.140, 6.362e-6, 2.006e-4
-0.145, 6.376e-6, 2.009e-4
-0.150, 6.385e-6, 2.012e-4
-0.155, 6.412e-6, 2.016e-4
-0.160, 6.438e-6, 2.019e-4
-0.165, 6.481e-6, 2.022e-4
-0.170, 6.528e-6, 2.025e-4
-0.175, 6.586e-6, 2.029e-4
-0.180, 6.662e-6, 2.032e-4
-0.185, 6.746e-6, 2.035e-4
-0.190, 6.836e-6, 2.039e-4
-0.195, 6.937e-6, 2.042e-4
-0.200, 7.038e-6, 2.046e-4
-0.205, 7.092e-6, 2.049e-4
-0.210, 7.195e-6, 2.053e-4
-0.215, 7.264e-6, 2.057e-4
-0.220, 7.344e-6, 2.060e-4
-0.225, 7.405e-6, 2.064e-4
-0.230, 7.467e-6, 2.068e-4
-0.235, 7.528e-6, 2.071e-4
-0.240, 7.564e-6, 2.075e-4
-0.245, 7.596e-6, 2.079e-4
-0.250, 7.616e-6, 2.083e-4
-0.255, 7.631e-6, 2.087e-4
-0.260, 7.620e-6, 2.090e-4
-0.265, 7.619e-6, 2.094e-4
-0.270, 7.601e-6, 2.098e-4
-0.275, 7.596e-6, 2.102e-4
-0.280, 7.587e-6, 2.106e-4
-0.285, 7.599e-6, 2.109e-4
-0.290, 5.487e-6, 2.112e-4

Segment 6:
-0.285, 4.153e-6, 2.114e-4
-0.280, 3.776e-6, 2.116e-4
-0.275, 3.522e-6, 2.118e-4
-0.270, 3.322e-6, 2.120e-4
-0.265, 3.158e-6, 2.121e-4
-0.260, 3.002e-6, 2.123e-4
-0.255, 2.868e-6, 2.124e-4
-0.250, 2.752e-6, 2.125e-4
-0.245, 2.646e-6, 2.127e-4
-0.240, 2.561e-6, 2.128e-4
-0.235, 2.487e-6, 2.129e-4
-0.230, 2.450e-6, 2.131e-4
-0.225, 2.418e-6, 2.132e-4
-0.220, 2.410e-6, 2.133e-4
-0.215, 2.404e-6, 2.134e-4
-0.210, 2.411e-6, 2.135e-4
-0.205, 2.436e-6, 2.137e-4
-0.200, 2.416e-6, 2.138e-4
-0.195, 2.430e-6, 2.139e-4
-0.190, 2.452e-6, 2.140e-4
-0.185, 2.488e-6, 2.141e-4
-0.180, 2.529e-6, 2.143e-4
-0.175, 2.565e-6, 2.144e-4
-0.170, 2.592e-6, 2.145e-4
-0.165, 2.609e-6, 2.147e-4
-0.160, 2.620e-6, 2.148e-4
-0.155, 2.611e-6, 2.149e-4
-0.150, 2.608e-6, 2.151e-4
-0.145, 2.590e-6, 2.152e-4
-0.140, 2.567e-6, 2.153e-4
-0.135, 2.538e-6, 2.154e-4
-0.130, 2.511e-6, 2.156e-4
-0.125, 2.480e-6, 2.157e-4
-0.120, 2.458e-6, 2.158e-4
-0.115, 2.438e-6, 2.159e-4
-0.110, 2.421e-6, 2.161e-4
-0.105, 2.390e-6, 2.162e-4
-0.100, 2.362e-6, 2.163e-4
-0.095, 2.319e-6, 2.164e-4
-0.090, 2.261e-6, 2.165e-4
-0.085, 2.195e-6, 2.166e-4
-0.080, 2.138e-6, 2.167e-4
-0.075, 2.088e-6, 2.168e-4
-0.070, 2.059e-6, 2.169e-4
-0.065, 2.058e-6, 2.170e-4
-0.060, 2.108e-6, 2.172e-4
-0.055, 2.181e-6, 2.173e-4
-0.050, 2.302e-6, 2.174e-4
-0.045, 2.440e-6, 2.175e-4
-0.040, 2.569e-6, 2.176e-4
-0.035, 2.696e-6, 2.178e-4
-0.030, 2.802e-6, 2.179e-4
-0.025, 2.894e-6, 2.180e-4
-0.020, 2.968e-6, 2.182e-4
-0.015, 3.031e-6, 2.183e-4
-0.010, 3.088e-6, 2.185e-4
-0.005, 3.131e-6, 2.187e-4
-0.000, 3.169e-6, 2.188e-4
0.005, 3.199e-6, 2.190e-4
0.010, 3.227e-6, 2.191e-4
0.015, 3.254e-6, 2.193e-4
0.020, 3.275e-6, 2.195e-4
0.025, 3.298e-6, 2.196e-4
0.030, 3.318e-6, 2.198e-4
0.035, 3.337e-6, 2.200e-4
0.040, 3.351e-6, 2.201e-4
0.045, 3.366e-6, 2.203e-4
0.050, 3.377e-6, 2.205e-4
0.055, 3.391e-6, 2.206e-4
0.060, 3.401e-6, 2.208e-4
0.065, 3.413e-6, 2.210e-4
0.070, 3.419e-6, 2.211e-4
0.075, 3.426e-6, 2.213e-4
0.080, 3.431e-6, 2.215e-4
0.085, 3.440e-6, 2.217e-4
0.090, 3.443e-6, 2.218e-4
0.095, 3.448e-6, 2.220e-4
0.100, 3.451e-6, 2.222e-4
0.105, 3.458e-6, 2.224e-4
0.110, 3.460e-6, 2.225e-4
0.115, 3.465e-6, 2.227e-4
0.120, 3.466e-6, 2.229e-4
0.125, 3.468e-6, 2.230e-4
0.130, 3.469e-6, 2.232e-4
0.135, 3.470e-6, 2.234e-4
0.140, 3.470e-6, 2.236e-4
0.145, 3.471e-6, 2.237e-4
0.150, 3.470e-6, 2.239e-4
0.155, 3.470e-6, 2.241e-4
0.160, 3.469e-6, 2.243e-4
0.165, 3.468e-6, 2.244e-4
0.170, 3.466e-6, 2.246e-4
0.175, 3.465e-6, 2.248e-4
0.180, 3.463e-6, 2.250e-4
0.185, 3.461e-6, 2.251e-4
0.190, 3.456e-6, 2.253e-4
0.195, 3.453e-6, 2.255e-4
0.200, 3.448e-6, 2.256e-4
0.205, 3.447e-6, 2.258e-4
0.210, 3.440e-6, 2.260e-4
0.215, 3.436e-6, 2.262e-4
0.220, 3.428e-6, 2.263e-4
0.225, 3.423e-6, 2.265e-4
0.230, 3.418e-6, 2.267e-4
0.235, 3.411e-6, 2.268e-4
0.240, 3.402e-6, 2.270e-4
0.245, 3.393e-6, 2.272e-4
0.250, 3.386e-6, 2.274e-4
0.255, 3.375e-6, 2.275e-4
0.260, 3.367e-6, 2.277e-4
0.265, 3.357e-6, 2.279e-4
0.270, 3.346e-6, 2.280e-4
0.275, 3.335e-6, 2.282e-4
0.280, 3.323e-6, 2.284e-4
0.285, 3.311e-6, 2.285e-4
0.290, 3.296e-6, 2.287e-4
0.295, 3.282e-6, 2.289e-4
0.300, 3.268e-6, 2.290e-4
0.305, 3.251e-6, 2.292e-4
0.310, 3.232e-6, 2.293e-4
0.315, 3.216e-6, 2.295e-4
0.320, 3.196e-6, 2.297e-4
0.325, 3.176e-6, 2.298e-4
0.330, 3.155e-6, 2.300e-4
0.335, 3.132e-6, 2.301e-4
0.340, 3.108e-6, 2.303e-4
0.345, 3.082e-6, 2.304e-4
0.350, 3.050e-6, 2.306e-4
0.355, 3.018e-6, 2.307e-4
0.360, 2.985e-6, 2.309e-4
0.365, 2.953e-6, 2.310e-4
0.370, 2.918e-6, 2.312e-4
0.375, 2.882e-6, 2.313e-4
0.380, 2.841e-6, 2.315e-4
0.385, 2.797e-6, 2.316e-4
0.390, 2.752e-6, 2.318e-4
0.395, 2.705e-6, 2.319e-4
0.400, 2.651e-6, 2.320e-4
0.405, 2.598e-6, 2.322e-4
0.410, 2.538e-6, 2.323e-4
0.415, 2.479e-6, 2.324e-4
0.420, 2.412e-6, 2.325e-4
0.425, 2.345e-6, 2.326e-4
0.430, 2.263e-6, 2.328e-4
0.435, 2.186e-6, 2.329e-4
0.440, 2.103e-6, 2.330e-4
0.445, 2.016e-6, 2.331e-4
0.450, 1.926e-6, 2.332e-4
0.455, 1.828e-6, 2.333e-4
0.460, 1.724e-6, 2.333e-4
0.465, 1.615e-6, 2.334e-4
0.470, 1.497e-6, 2.335e-4
0.475, 1.374e-6, 2.336e-4
0.480, 1.241e-6, 2.336e-4
0.485, 1.102e-6, 2.337e-4
0.490, 9.513e-7, 2.337e-4
0.495, 7.944e-7, 2.338e-4
0.500, 6.219e-7, 2.338e-4
0.505, 4.547e-7, 2.338e-4
0.510, 2.790e-7, 2.338e-4
0.515, 1.082e-7, 2.338e-4
0.520, -5.772e-8, 2.338e-4
0.525, -2.190e-7, 2.338e-4
0.530, -3.731e-7, 2.338e-4
0.535, -5.183e-7, 2.338e-4
0.540, -6.551e-7, 2.338e-4
0.545, -7.814e-7, 2.337e-4
0.550, -9.053e-7, 2.337e-4
0.555, -1.011e-6, 2.336e-4
0.560, -1.112e-6, 2.336e-4
0.565, -1.205e-6, 2.335e-4
0.570, -1.286e-6, 2.334e-4
0.575, -1.364e-6, 2.334e-4
0.580, -1.433e-6, 2.333e-4
0.585, -1.498e-6, 2.332e-4
0.590, -1.558e-6, 2.331e-4
0.595, -1.612e-6, 2.331e-4
0.600, -1.664e-6, 2.330e-4
0.605, -1.709e-6, 2.329e-4
0.610, -1.750e-6, 2.328e-4
0.615, -1.778e-6, 2.327e-4
0.620, -1.815e-6, 2.326e-4
0.625, -1.845e-6, 2.325e-4
0.630, -1.873e-6, 2.324e-4
0.635, -1.897e-6, 2.323e-4
0.640, -1.918e-6, 2.323e-4
0.645, -1.938e-6, 2.322e-4
0.650, -1.955e-6, 2.321e-4
0.655, -1.973e-6, 2.320e-4
0.660, -1.988e-6, 2.319e-4
0.665, -2.006e-6, 2.318e-4
0.670, -2.016e-6, 2.317e-4
0.675, -2.026e-6, 2.316e-4
0.680, -2.036e-6, 2.315e-4
0.685, -2.043e-6, 2.314e-4
0.690, -2.051e-6, 2.312e-4
0.695, -2.059e-6, 2.311e-4
0.700, -2.069e-6, 2.310e-4
0.705, -2.076e-6, 2.309e-4
0.710, -2.082e-6, 2.308e-4
0.715, -2.092e-6, 2.307e-4
0.720, -2.097e-6, 2.306e-4
0.725, -2.103e-6, 2.305e-4
0.730, -2.108e-6, 2.304e-4
0.735, -2.113e-6, 2.303e-4
0.740, -2.117e-6, 2.302e-4
0.745, -2.119e-6, 2.301e-4
0.750, -2.123e-6, 2.300e-4
0.755, -2.125e-6, 2.299e-4
0.760, -2.128e-6, 2.298e-4
0.765, -2.132e-6, 2.297e-4
0.770, -2.136e-6, 2.296e-4
0.775, -2.138e-6, 2.295e-4
0.780, -2.143e-6, 2.294e-4
0.785, -2.145e-6, 2.292e-4
0.790, -2.149e-6, 2.291e-4
0.795, -2.152e-6, 2.290e-4
0.800, -2.157e-6, 2.289e-4
0.805, -2.164e-6, 2.288e-4
0.810, -2.169e-6, 2.287e-4
0.815, -2.174e-6, 2.286e-4
0.820, -2.177e-6, 2.285e-4
0.825, -2.185e-6, 2.284e-4
0.830, -2.193e-6, 2.283e-4
0.835, -2.200e-6, 2.282e-4
0.840, -2.207e-6, 2.280e-4
0.845, -2.215e-6, 2.279e-4
0.850, -2.223e-6, 2.278e-4
0.855, -2.230e-6, 2.277e-4
0.860, -2.240e-6, 2.276e-4
0.865, -2.248e-6, 2.275e-4
0.870, -2.260e-6, 2.274e-4
0.875, -2.269e-6, 2.273e-4
0.880, -2.278e-6, 2.271e-4
0.885, -2.288e-6, 2.270e-4
0.890, -2.297e-6, 2.269e-4
0.895, -2.308e-6, 2.268e-4
0.900, -2.318e-6, 2.267e-4
0.905, -2.326e-6, 2.266e-4
0.910, -2.339e-6, 2.265e-4
0.915, -2.347e-6, 2.263e-4
0.920, -2.360e-6, 2.262e-4
0.925, -2.370e-6, 2.261e-4
0.930, -2.381e-6, 2.260e-4
0.935, -2.394e-6, 2.259e-4
0.940, -2.409e-6, 2.257e-4
0.945, -2.417e-6, 2.256e-4
0.950, -2.426e-6, 2.255e-4
0.955, -2.436e-6, 2.254e-4
0.960, -2.445e-6, 2.253e-4
0.965, -2.456e-6, 2.251e-4
0.970, -2.465e-6, 2.250e-4
0.975, -2.477e-6, 2.249e-4
0.980, -2.487e-6, 2.248e-4
0.985, -2.495e-6, 2.246e-4
0.990, -2.505e-6, 2.245e-4
0.995, -2.512e-6, 2.244e-4
1.000, -2.519e-6, 2.243e-4
1.005, -2.527e-6, 2.241e-4
1.010, -2.536e-6, 2.240e-4
1.015, -2.541e-6, 2.239e-4
1.020, -2.549e-6, 2.238e-4
1.025, -2.554e-6, 2.236e-4
1.030, -2.562e-6, 2.235e-4
1.035, -2.570e-6, 2.234e-4
1.040, -2.580e-6, 2.232e-4
1.045, -2.586e-6, 2.231e-4
1.050, -2.591e-6, 2.230e-4
1.055, -2.600e-6, 2.229e-4
1.060, -2.607e-6, 2.227e-4
1.065, -2.612e-6, 2.226e-4
1.070, -2.619e-6, 2.225e-4
1.075, -2.630e-6, 2.223e-4
1.080, -2.636e-6, 2.222e-4
1.085, -2.642e-6, 2.221e-4
1.090, -2.651e-6, 2.219e-4
1.095, -2.660e-6, 2.218e-4
1.100, -2.340e-6, 2.217e-4
